{
  "FormatIndex": 1,
  "SamplesPerSecond": 1000,
  "NumPackets": 10668,
  "ECGTest": {
    "RecordingDate": "2023-05-01T08:51:39.6159954+03:30",
    "Duration": "00:00:32.0040000",
    "Type": 2,
    "HeartRate": null,
    "Doctor": "",
    "AutomaticDiagnosis": null,
    "DoctorDiagnosis": "",
    "Description": "Normal ECG 80bpm",
    "HardwareInfo": {
      "PaceMakerDetection": true,
      "PaceMakerPulse": false,
      "BaselineFilter": 1,
      "LowPassFilter": 150,
      "PowerLineInterference": 0,
      "HardwareSerial": null
    },
    "Patient": {
      "Height": 165.0,
      "Weight": 80.2,
      "Firstname": "بهنام",
      "Lastname": "حق هوئی شیرازی",
      "NationalCode": "2291737953",
      "Sex": "M",
      "Birthdate": "1980-01-21T12:00:00Z",
      "Mobile": "09177024357",
      "Telephone": "07137256224",
      "Address": "شیراز، شهرک ولی عصر، بلوار فدک، کوچه 5، ساختمان سپهر، واحد 2",
      "POBox": "7156665658",
      "Email": "b.haghhooei@gmail.com",
      "ID": 4
    },
    "ID": 1
  }
}

--

Data:
D2 0B 00 00 50 00 00 C4 00 00 00 00 00 00 FF FF 00 00 00 00 00 00 00 00 00 00 C4 00 00 00 00 00 00 FF FF 00 00 00 00 00 00 00 00 00 00 C4 00 00 00 00 00 00 00 00 00 00 00 00 00 00 00 00 00 00
D3 0B 00 00 50 00 00 C4 00 00 00 00 00 00 00 00 00 00 00 00 00 00 00 00 00 00 C4 00 00 00 00 00 00 00 00 00 00 00 00 00 00 00 00 00 00 C4 00 00 00 00 00 00 00 00 00 00 00 00 00 00 00 00 00 00
D4 0B 00 00 50 00 00 C4 00 00 00 00 00 00 00 00 00 00 00 01 00 00 00 00 00 00 C4 00 00 00 00 00 01 00 00 00 00 00 00 00 00 00 00 00 00 C4 00 00 00 01 00 01 00 00 00 00 00 00 00 00 00 00 00 00
D5 0B 00 00 50 00 00 C4 00 00 00 01 00 00 FF FF 00 00 00 00 00 00 00 00 00 00 C4 00 00 00 01 00 00 FF FF 00 00 00 00 00 00 00 00 00 00 C4 00 00 00 00 00 00 FF FF 00 00 00 00 00 00 00 00 00 00
D6 0B 00 00 50 00 00 C4 00 00 00 00 00 00 00 00 00 00 00 00 00 00 00 00 00 00 C4 00 00 00 00 00 00 00 00 00 00 00 00 00 00 00 00 00 00 C4 00 00 00 00 00 00 FF FF 00 00 00 00 00 00 00 00 00 00
D7 0B 00 00 50 00 00 C4 00 00 00 00 00 00 FF FF 00 00 00 00 00 00 00 00 00 00 C4 00 00 00 00 00 00 FF FF 00 00 00 00 00 00 00 00 00 00 C4 00 00 00 00 00 00 FF FF 00 00 00 00 00 00 00 00 00 00
D8 0B 00 00 50 00 00 C4 00 00 00 00 00 00 00 00 00 00 00 00 00 00 00 00 00 00 C4 00 00 00 00 00 00 00 00 00 00 00 00 00 00 00 00 00 00 C4 00 00 00 00 00 00 00 00 00 00 00 01 00 00 00 00 00 01
D9 0B 00 00 50 00 00 C4 00 00 00 00 00 01 00 00 00 00 00 01 00 01 00 00 00 01 C4 00 00 00 00 00 01 00 00 00 00 00 01 00 01 00 00 00 01 C4 00 00 00 01 00 01 00 00 00 01 00 01 00 01 00 00 00 01
DA 0B 00 00 50 00 00 C4 00 00 00 01 00 01 00 00 00 01 00 01 00 01 00 00 00 01 C4 00 00 00 01 00 02 00 01 00 02 00 01 00 01 00 00 00 01 C4 00 00 00 02 00 02 00 01 00 02 00 02 00 02 00 00 00 02
DB 0B 00 00 50 00 00 C4 00 00 00 02 00 03 00 01 00 02 00 02 00 02 00 00 00 02 C4 00 00 00 02 00 03 00 01 00 02 00 03 00 03 00 00 00 02 C4 00 00 00 03 00 04 00 01 00 02 00 03 00 03 00 00 00 02
DC 0B 00 00 50 00 00 C4 00 00 00 03 00 04 00 01 00 02 00 03 00 03 00 00 00 02 C4 00 00 00 02 00 04 00 02 00 03 00 04 00 03 00 00 00 02 C4 00 00 00 02 00 04 00 02 00 03 00 04 00 03 00 00 00 02
DD 0B 00 00 50 00 00 C4 00 00 00 03 00 04 00 02 00 03 00 04 00 04 00 00 00 02 C4 00 00 00 03 00 04 00 02 00 03 00 04 00 04 00 00 00 02 C4 00 00 00 03 00 04 00 02 00 03 00 04 00 04 00 00 00 02
DE 0B 00 00 50 00 00 C4 00 00 00 02 00 04 00 02 00 03 00 04 00 04 00 00 00 02 C4 00 00 00 02 00 04 00 02 00 03 00 04 00 04 00 00 00 02 C4 00 00 00 03 00 04 00 03 00 04 00 04 00 04 00 00 00 03
DF 0B 00 00 50 00 00 C4 00 00 00 03 00 04 00 03 00 04 00 05 00 05 00 00 00 03 C4 00 00 00 03 00 05 00 04 00 05 00 05 00 05 00 00 00 03 C4 00 00 00 04 00 05 00 04 00 05 00 05 00 05 00 00 00 03
E0 0B 00 00 50 00 00 C4 00 00 00 04 00 06 00 04 00 05 00 05 00 05 00 00 00 04 C4 00 00 00 04 00 06 00 04 00 05 00 06 00 05 00 00 00 04 C4 00 00 00 04 00 06 00 04 00 05 00 06 00 05 00 00 00 03
E1 0B 00 00 50 00 00 C4 00 00 00 05 00 07 00 04 00 05 00 06 00 05 00 00 00 03 C4 00 00 00 05 00 07 00 04 00 06 00 06 00 06 00 00 00 03 C4 00 00 00 05 00 07 00 04 00 06 00 06 00 06 00 00 00 04
E2 0B 00 00 50 00 00 C4 00 00 00 06 00 08 00 04 00 06 00 07 00 06 00 00 00 04 C4 00 00 00 06 00 08 00 05 00 06 00 07 00 07 00 00 00 04 C4 00 00 00 06 00 08 00 05 00 06 00 07 00 07 00 00 00 05
E3 0B 00 00 50 00 00 C4 00 00 00 05 00 08 00 05 00 06 00 07 00 07 00 00 00 05 C4 00 00 00 05 00 07 00 05 00 06 00 07 00 07 00 00 00 04 C4 00 00 00 05 00 07 00 05 00 06 00 07 00 06 00 00 00 04
E4 0B 00 00 50 00 00 C4 00 00 00 04 00 07 00 05 00 06 00 06 00 06 00 00 00 04 C4 00 00 00 04 00 07 00 05 00 06 00 06 00 07 00 00 00 04 C4 00 00 00 05 00 07 00 05 00 06 00 07 00 07 00 00 00 04
E5 0B 00 00 50 00 00 C4 00 00 00 05 00 07 00 05 00 06 00 07 00 07 00 00 00 04 C4 00 00 00 04 00 07 00 05 00 06 00 07 00 07 00 00 00 04 C4 00 00 00 04 00 07 00 05 00 06 00 07 00 07 00 00 00 04
E6 0B 00 00 50 00 00 C4 00 00 00 04 00 06 00 05 00 06 00 06 00 06 00 00 00 04 C4 00 00 00 04 00 07 00 05 00 06 00 06 00 06 00 00 00 04 C4 00 00 00 04 00 07 00 05 00 06 00 07 00 06 00 00 00 04
E7 0B 00 00 50 00 00 C4 00 00 00 05 00 07 00 05 00 06 00 07 00 06 00 00 00 04 C4 00 00 00 05 00 07 00 05 00 06 00 07 00 06 00 00 00 04 C4 00 00 00 05 00 07 00 05 00 06 00 07 00 07 00 00 00 04
E8 0B 00 00 50 00 00 C4 00 00 00 05 00 07 00 05 00 06 00 07 00 07 00 00 00 04 C4 00 00 00 05 00 07 00 04 00 06 00 07 00 07 00 00 00 04 C4 00 00 00 05 00 07 00 04 00 06 00 06 00 06 00 00 00 04
E9 0B 00 00 50 00 00 C4 00 00 00 04 00 06 00 04 00 05 00 06 00 06 00 00 00 04 C4 00 00 00 04 00 06 00 04 00 05 00 06 00 06 00 00 00 04 C4 00 00 00 04 00 06 00 03 00 05 00 06 00 05 00 00 00 03
EA 0B 00 00 50 00 00 C4 00 00 00 03 00 06 00 03 00 04 00 06 00 05 00 00 00 03 C4 00 00 00 03 00 05 00 03 00 04 00 05 00 05 00 00 00 03 C4 00 00 00 03 00 05 00 03 00 04 00 05 00 05 00 00 00 03
EB 0B 00 00 50 00 00 C4 00 00 00 03 00 04 00 03 00 04 00 04 00 04 00 00 00 03 C4 00 00 00 02 00 04 00 03 00 04 00 04 00 04 00 00 00 03 C4 00 00 00 02 00 04 00 02 00 04 00 04 00 04 00 00 00 03
EC 0B 00 00 50 00 00 C4 00 00 00 02 00 04 00 02 00 03 00 04 00 04 00 00 00 02 C4 00 00 00 02 00 03 00 02 00 03 00 03 00 03 00 00 00 02 C4 00 00 00 01 00 03 00 02 00 02 00 03 00 03 00 00 00 02
ED 0B 00 00 50 00 00 C4 00 00 00 01 00 03 00 01 00 02 00 03 00 02 00 00 00 01 C4 00 00 00 02 00 03 00 01 00 02 00 03 00 02 00 00 00 01 C4 00 00 00 02 00 03 00 01 00 02 00 02 00 02 00 00 00 01
EE 0B 00 00 50 00 00 C4 00 00 00 02 00 03 00 01 00 02 00 03 00 03 00 00 00 02 C4 00 00 00 02 00 03 00 01 00 02 00 03 00 03 00 00 00 02 C4 00 00 00 02 00 03 00 01 00 02 00 03 00 03 00 00 00 02
EF 0B 00 00 50 00 00 C4 00 00 00 02 00 03 00 01 00 02 00 03 00 02 00 00 00 01 C4 00 00 00 02 00 02 00 00 00 02 00 02 00 02 00 00 00 01 C4 00 00 00 01 00 02 00 00 00 01 00 02 00 01 00 00 00 01
F0 0B 00 00 50 00 00 C4 00 00 00 01 00 01 00 00 00 01 00 01 00 01 00 00 00 01 C4 00 00 00 01 00 01 00 00 00 00 00 01 00 01 00 00 00 01 C4 00 00 00 00 00 01 00 00 00 00 00 01 00 01 00 00 00 01
F1 0B 00 00 50 00 00 C4 00 00 00 00 00 00 00 00 00 00 00 01 00 01 00 00 00 01 C4 00 00 00 00 00 00 00 00 00 00 00 01 00 00 00 00 00 01 C4 00 00 00 00 00 00 00 00 00 00 00 00 00 00 00 00 00 01
F2 0B 00 00 50 00 00 C4 00 00 00 00 00 00 00 00 00 00 00 00 00 00 00 00 00 00 C4 00 00 00 00 00 00 FF FF 00 00 00 00 00 00 00 00 00 00 C4 00 00 00 00 00 00 FF FF 00 00 00 00 00 00 00 00 00 00
F3 0B 00 00 50 00 00 C4 00 00 00 00 00 00 FF FF 00 00 00 00 00 00 00 00 00 00 C4 00 00 00 00 00 00 FF FF 00 00 00 00 00 00 00 00 FF FF C4 00 00 00 00 00 00 FF FF 00 00 00 00 00 00 00 00 FF FF
F4 0B 00 00 50 00 00 C4 00 00 00 00 00 00 00 00 00 00 00 00 00 00 00 00 FF FF C4 00 00 00 00 00 00 00 00 00 00 00 00 00 00 00 00 00 00 C4 00 00 00 00 00 00 00 00 00 00 00 00 00 00 00 00 00 00
F5 0B 00 00 50 00 00 C4 00 00 00 00 00 00 00 00 00 00 00 00 00 00 00 00 00 00 C4 00 00 00 00 00 00 00 00 00 00 00 00 00 00 00 00 00 00 C4 00 00 00 00 00 01 00 00 00 00 00 00 00 00 00 00 00 00
F6 0B 00 00 50 00 00 C4 00 00 00 00 00 00 00 00 00 00 00 00 00 00 00 00 00 00 C4 00 00 00 00 00 00 00 00 00 00 00 00 00 00 00 00 00 00 C4 00 00 00 01 00 00 FF FF 00 00 00 00 00 00 00 00 00 00
F7 0B 00 00 50 00 00 C4 00 00 00 00 00 00 FF FF 00 00 00 00 00 00 00 00 00 00 C4 00 00 00 00 00 00 00 00 00 00 00 00 00 00 00 00 00 00 C4 00 00 00 00 00 00 00 00 00 00 00 00 00 00 00 00 00 00
F8 0B 00 00 50 00 00 C4 00 00 00 00 00 00 00 00 00 00 00 00 00 00 00 00 00 00 C4 00 00 00 00 00 00 00 00 00 00 00 00 00 00 00 00 00 00 C4 00 00 00 00 00 00 00 00 00 00 00 00 00 00 00 00 00 00
F9 0B 00 00 50 00 00 C4 00 00 00 00 00 00 00 00 00 00 00 00 00 00 00 00 00 00 C4 00 00 00 00 00 00 FF FF 00 00 00 00 00 00 00 00 00 00 C4 00 00 00 00 00 00 FF FF 00 00 00 00 00 00 00 00 00 00
FA 0B 00 00 50 00 00 C4 00 00 00 00 00 00 00 00 00 00 00 00 00 00 00 00 00 00 C4 00 00 00 00 00 00 00 00 00 00 00 00 00 00 00 00 00 00 C4 00 00 00 00 00 00 00 00 00 00 00 00 00 00 00 00 00 00
FB 0B 00 00 50 00 00 C4 00 00 00 00 00 00 FF FF 00 00 00 00 00 00 00 00 00 00 C4 00 00 00 00 00 00 FF FF 00 00 00 00 00 00 00 00 00 00 C4 00 00 00 00 00 00 FF FF 00 00 00 00 00 00 00 00 00 00
FC 0B 00 00 50 00 00 C4 00 00 00 00 00 00 00 00 00 00 00 01 00 00 00 00 00 01 C4 00 00 00 01 00 01 00 00 00 00 00 01 00 00 00 00 00 01 C4 00 00 00 01 00 01 00 00 00 00 00 01 00 00 00 00 00 01
FD 0B 00 00 50 00 00 C4 00 00 00 01 00 01 00 00 00 00 00 00 00 00 00 00 00 01 C4 00 00 00 01 00 01 00 00 00 00 00 00 00 00 00 00 00 01 C4 00 00 00 00 00 00 00 00 00 00 00 00 00 00 00 00 00 00
FE 0B 00 00 50 00 00 C4 00 00 00 00 00 00 00 00 00 00 00 00 00 00 00 00 00 00 C4 00 00 00 00 00 00 FF FF 00 00 00 00 00 00 00 00 00 00 C4 00 00 00 00 00 00 FF FF 00 00 00 00 00 00 00 00 00 00
FF 0B 00 00 50 00 00 C4 00 00 00 00 00 00 FF FF 00 00 00 00 00 00 00 00 FF FF C4 00 00 00 00 00 00 00 00 00 00 00 00 00 00 00 00 FF FF C4 00 00 00 00 00 00 00 00 00 00 00 00 00 00 00 00 00 00
00 0C 00 00 50 00 00 C4 00 00 00 00 00 00 00 00 00 00 00 00 00 00 00 00 00 00 C4 00 00 00 00 00 00 FF FF 00 00 00 00 00 00 00 00 00 00 C4 00 00 00 00 00 00 FF FF 00 00 00 00 00 00 00 00 00 00
01 0C 00 00 50 00 00 C4 00 00 00 00 00 00 FF FF 00 00 00 00 00 00 00 00 00 00 C4 00 00 00 00 00 00 FF FF 00 00 00 00 00 00 00 00 00 00 C4 00 00 00 00 00 00 00 00 00 00 00 00 00 00 00 00 00 00
02 0C 00 00 50 00 00 C4 00 00 00 00 00 00 00 00 00 00 00 00 00 00 00 00 00 00 C4 00 00 00 00 00 00 00 00 00 00 00 00 00 00 00 00 00 00 C4 00 00 00 00 00 00 FF FF 00 00 00 00 00 00 00 00 00 00
03 0C 00 00 50 00 00 C4 00 00 00 00 00 01 FF FF 00 00 00 00 00 00 00 00 00 00 C4 00 00 00 00 00 01 FF FF 00 00 00 00 00 00 00 00 00 00 C4 00 00 00 01 00 01 00 00 00 00 00 01 00 00 00 00 00 00
04 0C 00 00 50 00 00 C4 00 00 00 00 00 01 00 00 00 00 00 01 00 00 00 00 00 00 C4 00 00 00 00 00 00 00 00 00 00 00 01 00 00 00 00 00 00 C4 00 00 00 00 00 00 00 00 00 00 00 00 00 00 00 00 00 00
05 0C 00 00 50 00 00 C4 00 00 00 00 00 00 00 00 00 00 00 00 00 00 00 00 00 00 C4 00 00 00 00 00 00 00 00 00 00 00 00 00 00 00 00 00 00 C4 00 00 00 00 00 00 00 00 00 00 00 00 00 00 00 00 00 00
06 0C 00 00 50 00 00 C4 00 00 00 00 00 00 FF FF 00 00 00 00 00 00 00 00 00 00 C4 00 00 00 00 00 00 FF FF 00 00 00 00 00 00 00 00 00 00 C4 00 00 00 00 00 00 FF FF 00 00 00 00 00 00 00 00 00 00
07 0C 00 00 50 00 00 C4 00 00 00 00 00 00 00 00 00 00 00 00 00 00 00 00 00 00 C4 00 00 00 00 00 00 00 00 00 00 00 00 00 00 00 00 00 00 C4 00 00 00 00 00 00 00 00 00 00 00 00 00 00 00 00 00 00
08 0C 00 00 50 00 00 C4 00 00 00 00 00 00 00 00 00 00 00 00 00 00 00 00 00 00 C4 00 00 00 00 00 00 FF FF 00 00 00 00 00 00 00 00 00 00 C4 00 00 00 00 00 00 FF FF 00 00 00 00 00 00 00 00 00 00
09 0C 00 00 50 00 00 C4 00 00 00 00 00 00 00 00 00 00 00 00 00 00 00 00 00 00 C4 00 00 00 00 00 00 00 00 00 00 00 01 00 00 00 00 00 00 C4 00 00 00 00 00 00 00 00 00 00 00 01 00 00 00 00 00 01
0A 0C 00 00 50 00 00 C4 00 00 00 01 00 01 00 00 00 00 00 01 00 00 00 00 00 01 C4 00 00 00 01 00 01 00 00 00 00 00 01 00 00 00 00 00 01 C4 00 00 00 01 00 00 00 00 FF FF 00 00 00 00 00 00 00 00
0B 0C 00 00 50 00 00 C4 00 00 00 00 00 00 00 00 00 00 00 00 00 01 00 00 00 00 C4 00 00 00 00 00 00 00 00 00 00 00 00 00 00 00 00 00 00 C4 00 00 00 00 FF FF 00 00 00 00 00 00 00 00 00 00 00 00
0C 0C 00 00 50 00 00 C4 00 00 00 00 FF FF 00 00 00 00 00 00 00 00 00 00 00 00 C4 00 00 00 00 FF FE 00 00 FF FF 00 00 00 00 00 00 00 00 C4 00 00 00 00 FF FF 00 00 FF FF 00 00 00 00 00 00 00 00
0D 0C 00 00 50 00 00 C4 00 00 FF FF FF FE FF FF FF FE FF FF FF FF 00 00 FF FF C4 00 00 FF FE FF FD FF FF FF FD FF FE FF FE 00 00 FF FF C4 00 00 FF FD FF FC FF FE FF FC FF FD FF FD 00 00 FF FF
0E 0C 00 00 50 00 00 C4 00 00 FF FC FF FB FF FD FF FB FF FC FF FC 00 00 FF FE C4 00 00 FF FB FF FA FF FD FF FA FF FA FF FC 00 00 FF FE C4 00 00 FF FA FF F9 FF FC FF FA FF FA FF FB 00 00 FF FF
0F 0C 00 00 50 00 00 C4 00 00 FF FA FF F9 FF FC FF FA FF F9 FF FB 00 00 FF FF C4 00 00 FF FA FF F9 FF FC FF FA FF F9 FF FA 00 00 FF FF C4 00 00 FF FA FF F9 FF FC FF FA FF F9 FF FA 00 00 FF FF
10 0C 00 00 50 00 00 C4 00 00 FF FA FF F9 FF FD FF FB FF FA FF FA 00 00 00 00 C4 00 00 FF FA FF F9 FF FE FF FD FF FB FF FA 00 00 00 01 C4 00 00 FF FB FF FA 00 00 FF FF FF FC FF FA 00 00 00 02
11 0C 00 00 50 00 00 C4 00 00 FF FC FF FB 00 01 00 02 FF FE FF FB 00 00 00 04 C4 00 00 FF FD FF FC 00 03 00 05 00 00 FF FD 00 00 00 05 C4 00 00 FF FF FF FE 00 06 00 09 00 03 FF FF 00 00 00 06
12 0C 00 00 50 00 00 C4 00 00 00 00 00 00 00 08 00 0D 00 07 00 00 00 00 00 07 C4 00 00 00 00 00 00 00 09 00 11 00 0B 00 02 00 00 00 08 C4 00 00 00 01 00 01 00 0A 00 13 00 0E 00 04 00 00 00 08
13 0C 00 00 50 00 00 C4 00 00 00 02 00 02 00 0B 00 16 00 10 00 05 00 00 00 09 C4 00 00 00 03 00 04 00 0D 00 19 00 13 00 07 00 00 00 09 C4 00 00 00 05 00 07 00 0F 00 1C 00 16 00 0B 00 00 00 0A
14 0C 00 00 50 00 00 C4 00 00 00 09 00 0B 00 11 00 20 00 1A 00 0F 00 00 00 0B C4 00 00 00 0C 00 0F 00 14 00 24 00 20 00 15 00 00 00 0C C4 00 00 00 10 00 14 00 16 00 2A 00 27 00 1B 00 00 00 0D
15 0C 00 00 50 00 00 C4 00 00 00 13 00 18 00 18 00 2F 00 2E 00 20 00 00 00 0E C4 00 00 00 15 00 1B 00 1A 00 33 00 34 00 25 00 00 00 0E C4 00 00 00 16 00 1D 00 1B 00 36 00 38 00 28 00 00 00 0F
16 0C 00 00 50 00 00 C4 00 00 00 18 00 20 00 1C 00 38 00 3A 00 2A 00 00 00 0F C4 00 00 00 1B 00 23 00 1D 00 3A 00 3D 00 2D 00 00 00 0F C4 00 00 00 1E 00 26 00 1D 00 3C 00 40 00 31 00 00 00 0F
17 0C 00 00 50 00 00 C4 00 00 00 20 00 2A 00 1D 00 3D 00 44 00 35 00 00 00 0E C4 00 00 00 23 00 2E 00 1B 00 3E 00 47 00 3A 00 00 00 0D C4 00 00 00 25 00 31 00 18 00 3D 00 48 00 3D 00 00 00 0B
18 0C 00 00 50 00 00 C4 00 00 00 27 00 33 00 14 00 39 00 48 00 3F 00 00 00 08 C4 00 00 00 27 00 34 00 10 00 34 00 45 00 40 00 00 00 05 C4 00 00 00 27 00 34 00 0C 00 2E 00 42 00 3F 00 00 00 02
19 0C 00 00 50 00 00 C4 00 00 00 27 00 33 00 08 00 29 00 3E 00 3D 00 00 00 00 C4 00 00 00 26 00 32 00 05 00 25 00 3B 00 3B 00 00 FF FE C4 00 00 00 25 00 30 00 02 00 22 00 39 00 3A 00 00 FF FC
1A 0C 00 00 50 00 00 C4 00 00 00 24 00 2F 00 00 00 1E 00 37 00 38 00 00 FF F9 C4 00 00 00 22 00 2D FF FA 00 18 00 33 00 36 00 00 FF F6 C4 00 00 00 20 00 2A FF F3 00 10 00 2E 00 32 00 00 FF F1
1B 0C 00 00 50 00 00 C4 00 00 00 1D 00 26 FF EA 00 05 00 26 00 2D 00 00 FF ED C4 00 00 00 1A 00 22 FF E1 FF FB 00 1E 00 27 00 00 FF E8 C4 00 00 00 17 00 1E FF D9 FF F2 00 16 00 22 00 00 FF E4
1C 0C 00 00 50 00 00 C4 00 00 00 15 00 1B FF D3 FF EB 00 10 00 1D 00 00 FF E1 C4 00 00 00 14 00 19 FF CF FF E6 00 0D 00 19 00 00 FF DF C4 00 00 00 13 00 18 FF CD FF E3 00 0B 00 17 00 00 FF DD
1D 0C 00 00 50 00 00 C4 00 00 00 11 00 16 FF CB FF E0 00 09 00 14 00 00 FF DC C4 00 00 00 0F 00 14 FF C9 FF DD 00 06 00 11 00 00 FF DB C4 00 00 00 0D 00 10 FF C7 FF DA 00 02 00 0E 00 00 FF DA
1E 0C 00 00 50 00 00 C4 00 00 00 0A 00 0C FF C6 FF D8 FF FE 00 0A 00 00 FF DA C4 00 00 00 07 00 08 FF C6 FF D7 FF F9 00 06 00 00 FF DB C4 00 00 00 04 00 04 FF C8 FF D9 FF F4 00 02 00 00 FF DD
1F 0C 00 00 50 00 00 C4 00 00 00 02 00 01 FF CB FF DB FF F2 00 00 00 00 FF DF C4 00 00 00 01 00 00 FF CF FF DE FF F1 FF FE 00 00 FF E2 C4 00 00 00 00 00 00 FF D2 FF E0 FF F1 FF FD 00 00 FF E5
20 0C 00 00 50 00 00 C4 00 00 00 00 FF FF FF D5 FF E1 FF F1 FF FD 00 00 FF E6 C4 00 00 00 00 FF FF FF D7 FF E2 FF F1 FF FD 00 00 FF E8 C4 00 00 FF FF FF FE FF D9 FF E4 FF F1 FF FC 00 00 FF E9
21 0C 00 00 50 00 00 C4 00 00 FF FE FF FD FF DC FF E6 FF F1 FF FC 00 00 FF EB C4 00 00 FF FD FF FC FF E0 FF EA FF F1 FF FB 00 00 FF EE C4 00 00 FF FD FF FB FF E6 FF EE FF F3 FF FB 00 00 FF F1
22 0C 00 00 50 00 00 C4 00 00 FF FC FF FB FF EC FF F3 FF F5 FF FC 00 00 FF F5 C4 00 00 FF FC FF FB FF F1 FF F6 FF F8 FF FC 00 00 FF F8 C4 00 00 FF FD FF FC FF F4 FF F8 FF FA FF FC 00 00 FF FA
23 0C 00 00 50 00 00 C4 00 00 FF FD FF FC FF F6 FF F9 FF FB FF FC 00 00 FF FB C4 00 00 FF FE FF FC FF F7 FF FA FF FB FF FD 00 00 FF FB C4 00 00 FF FE FF FD FF F8 FF FA FF FC FF FD 00 00 FF FB
24 0C 00 00 50 00 00 C4 00 00 FF FF FF FD FF F9 FF FB FF FC FF FD 00 00 FF FC C4 00 00 FF FF FF FE FF FA FF FC FF FD FF FE 00 00 FF FD C4 00 00 00 00 FF FF FF FC FF FE FF FE FF FF 00 00 FF FE
25 0C 00 00 50 00 00 C4 00 00 00 00 FF FF FF FE FF FF FF FF FF FF 00 00 FF FF C4 00 00 00 01 00 00 00 00 00 00 00 00 00 00 00 00 00 00 C4 00 00 00 01 00 00 00 00 00 00 00 00 00 00 00 00 00 00
26 0C 00 00 50 00 00 C4 00 00 00 01 00 00 00 00 00 00 00 00 00 00 00 00 00 01 C4 00 00 00 01 00 00 00 00 00 00 00 00 00 01 00 00 00 01 C4 00 00 00 00 00 00 00 00 00 00 00 00 00 01 00 00 00 01
27 0C 00 00 50 00 00 C4 00 00 00 00 00 00 00 00 00 00 00 00 00 01 00 00 00 00 C4 00 00 00 00 00 00 00 00 00 00 00 00 00 01 00 00 00 00 C4 00 00 00 00 00 00 00 00 00 00 00 00 00 01 00 00 00 00
28 0C 00 00 50 00 00 C4 00 00 00 00 00 00 00 00 00 00 00 00 00 01 00 00 00 00 C4 00 00 00 00 00 00 00 00 00 00 00 00 00 01 00 00 00 00 C4 00 00 00 00 00 00 00 00 00 00 00 00 00 01 00 00 00 00
29 0C 00 00 50 00 00 C4 00 00 00 00 00 00 00 00 00 00 00 00 00 01 00 00 00 00 C4 00 00 00 00 00 00 00 00 00 00 00 00 00 01 00 00 00 00 C4 00 00 00 01 00 00 00 00 00 00 00 00 00 00 00 00 00 00
2A 0C 00 00 50 00 00 C4 00 00 00 01 00 00 00 00 00 00 00 00 00 00 00 00 00 00 C4 00 00 00 01 00 00 00 00 00 00 00 00 00 01 00 00 00 00 C4 00 00 00 01 00 00 00 00 00 00 00 00 00 01 00 00 00 00
2B 0C 00 00 50 00 00 C4 00 00 00 01 00 01 00 00 00 00 00 00 00 01 00 00 00 00 C4 00 00 00 02 00 01 00 00 00 00 00 01 00 01 00 00 00 01 C4 00 00 00 02 00 01 00 00 00 00 00 01 00 01 00 00 00 01
2C 0C 00 00 50 00 00 C4 00 00 00 02 00 01 00 00 00 00 00 00 00 01 00 00 00 00 C4 00 00 00 02 00 00 00 00 00 00 00 00 00 01 00 00 00 00 C4 00 00 00 01 00 00 00 00 00 00 00 00 00 01 00 00 00 00
2D 0C 00 00 50 00 00 C4 00 00 00 01 00 00 00 00 00 00 00 00 00 01 00 00 00 00 C4 00 00 00 01 00 00 00 00 00 00 00 00 00 01 00 00 00 00 C4 00 00 00 01 00 00 00 00 00 00 00 00 00 01 00 00 00 00
2E 0C 00 00 50 00 00 C4 00 00 00 00 00 00 00 00 00 00 00 00 00 00 00 00 00 00 C4 00 00 00 00 00 00 00 00 00 00 00 00 00 00 00 00 00 00 C4 00 00 00 00 00 00 00 00 00 00 00 00 00 00 00 00 00 00
2F 0C 00 00 50 00 00 C4 00 00 00 00 00 00 00 00 00 00 00 00 00 00 00 00 00 00 C4 00 00 00 00 00 00 00 00 00 00 00 00 00 00 00 00 00 00 C4 00 00 00 00 00 00 00 00 00 00 00 00 00 00 00 00 00 00
30 0C 00 00 50 00 00 C4 00 00 00 00 00 00 00 00 00 00 00 00 00 00 00 00 00 00 C4 00 00 00 00 00 00 00 00 00 00 00 00 00 01 00 00 00 00 C4 00 00 00 01 00 00 00 00 00 00 00 00 00 01 00 00 00 00
31 0C 00 00 50 00 00 C4 00 00 00 01 00 00 00 00 00 00 00 00 00 01 00 00 00 00 C4 00 00 00 01 00 00 00 00 00 00 00 00 00 01 00 00 00 00 C4 00 00 00 01 00 00 00 00 00 00 00 00 00 01 00 00 00 00
32 0C 00 00 50 00 00 C4 00 00 00 02 00 01 00 00 00 00 00 00 00 01 00 00 00 00 C4 00 00 00 02 00 01 00 00 00 00 00 00 00 01 00 00 00 01 C4 00 00 00 01 00 00 00 00 00 00 00 01 00 01 00 00 00 00
33 0C 00 00 50 00 00 C4 00 00 00 01 00 00 00 00 00 00 00 01 00 01 00 00 00 00 C4 00 00 00 01 00 00 00 00 00 00 00 00 00 01 00 00 00 00 C4 00 00 00 01 00 00 00 00 00 00 00 00 00 00 00 00 00 00
34 0C 00 00 50 00 00 C4 00 00 00 00 00 00 00 00 00 00 00 00 00 00 00 00 00 00 C4 00 00 00 01 00 00 00 00 00 00 00 00 00 00 00 00 00 00 C4 00 00 00 00 00 00 00 00 00 00 00 00 00 01 00 00 00 00
35 0C 00 00 50 00 00 C4 00 00 00 00 00 00 00 00 00 00 00 00 00 01 00 00 00 00 C4 00 00 00 00 00 00 00 00 00 00 00 00 00 01 00 00 00 00 C4 00 00 00 00 00 00 00 00 00 00 00 00 00 01 00 00 00 00
36 0C 00 00 50 00 00 C4 00 00 00 00 00 00 00 00 00 00 00 00 00 00 00 00 00 00 C4 00 00 00 00 00 00 00 00 00 00 00 00 00 00 00 00 00 00 C4 00 00 00 00 00 00 00 00 00 00 00 00 00 00 00 00 00 00
37 0C 00 00 50 00 00 C4 00 00 00 00 00 00 00 00 00 00 00 00 00 01 00 00 00 00 C4 00 00 00 01 00 00 00 00 00 00 00 00 00 01 00 00 00 00 C4 00 00 00 01 00 00 00 00 00 00 00 00 00 01 00 00 00 00
38 0C 00 00 50 00 00 C4 00 00 00 01 00 00 00 00 00 00 00 00 00 01 00 00 00 00 C4 00 00 00 01 00 00 00 00 00 00 00 00 00 01 00 00 00 00 C4 00 00 00 02 00 01 00 00 00 00 00 00 00 01 00 00 00 00
39 0C 00 00 50 00 00 C4 00 00 00 02 00 01 00 00 00 00 00 00 00 01 00 00 00 00 C4 00 00 00 02 00 01 00 00 00 00 00 00 00 01 00 00 00 01 C4 00 00 00 01 00 00 00 00 00 00 00 00 00 01 00 00 00 01
3A 0C 00 00 50 00 00 C4 00 00 00 01 00 00 00 00 00 00 00 00 00 01 00 00 00 01 C4 00 00 00 01 00 00 00 00 00 00 00 00 00 01 00 00 00 00 C4 00 00 00 01 00 00 00 00 00 00 00 00 00 01 00 00 00 00
3B 0C 00 00 50 00 00 C4 00 00 00 01 00 00 00 00 00 00 00 00 00 00 00 00 00 00 C4 00 00 00 00 00 00 00 00 00 00 00 00 00 00 00 00 00 00 C4 00 00 00 00 00 00 00 00 00 00 00 00 00 00 00 00 00 00
3C 0C 00 00 50 00 00 C4 00 00 00 00 00 00 00 00 00 00 00 00 00 01 00 00 00 00 C4 00 00 00 00 00 00 00 00 00 00 00 00 00 01 00 00 00 00 C4 00 00 00 00 00 00 00 00 00 00 00 00 00 01 00 00 00 00
3D 0C 00 00 50 00 00 C4 00 00 00 00 00 00 00 00 00 00 00 00 00 00 00 00 00 00 E4 00 00 00 00 00 00 00 00 00 00 00 00 00 00 00 00 00 00 C4 00 00 00 00 00 00 00 00 00 00 00 00 00 00 00 00 FF FF
3E 0C 00 00 50 00 00 C4 00 00 00 01 00 00 00 00 00 00 00 00 00 01 00 00 FF FF C4 00 00 00 01 00 00 00 00 00 00 00 00 00 01 00 00 00 00 C4 00 00 00 01 00 00 00 00 00 00 00 00 00 01 00 00 00 00
3F 0C 00 00 50 00 00 C4 00 00 00 01 00 00 00 00 00 00 00 00 00 01 00 00 00 00 C4 00 00 00 01 00 00 00 00 00 00 00 00 00 01 00 00 00 00 C4 00 00 00 01 00 00 00 00 00 00 00 00 00 01 00 00 00 00
40 0C 00 00 50 00 00 C4 00 00 00 01 00 01 00 00 00 00 00 00 00 01 00 00 00 00 C4 00 00 00 01 00 01 00 00 00 00 00 01 00 01 00 00 00 00 C4 00 00 00 01 00 01 00 00 00 00 00 01 00 01 00 00 00 01
41 0C 00 00 50 00 00 C4 00 00 00 01 00 00 00 00 00 00 00 00 00 00 00 00 00 01 C4 00 00 00 01 00 00 00 00 00 00 00 00 00 00 00 00 00 01 C4 00 00 00 00 00 00 00 00 00 00 00 00 00 00 00 00 00 00
42 0C 00 00 50 00 00 C4 00 00 00 00 00 00 00 00 00 00 00 00 00 01 00 00 00 00 C4 00 00 00 00 00 00 00 00 00 00 00 00 00 01 00 00 00 00 C4 00 00 00 00 00 00 00 00 00 00 00 00 00 01 00 00 00 00
43 0C 00 00 50 00 00 C4 00 00 00 00 00 00 00 00 00 00 00 00 00 01 00 00 00 00 C4 00 00 00 00 00 00 00 00 00 00 00 00 00 00 00 00 00 00 C4 00 00 00 00 00 00 00 00 00 00 00 00 00 00 00 00 00 00
44 0C 00 00 50 00 00 C4 00 00 00 00 00 00 00 00 00 00 00 00 00 00 00 00 00 00 C4 00 00 00 00 00 00 00 00 00 00 00 00 00 01 00 00 00 00 C4 00 00 00 01 00 00 00 00 00 00 00 00 00 01 00 00 00 00
45 0C 00 00 50 00 00 C4 00 00 00 01 00 00 00 00 00 00 00 00 00 01 00 00 00 00 C4 00 00 00 01 00 00 00 00 00 00 00 00 00 01 00 00 00 00 C4 00 00 00 01 00 00 00 00 00 00 00 00 00 01 00 00 00 00
46 0C 00 00 50 00 00 C4 00 00 00 01 00 01 00 00 00 00 00 01 00 01 00 00 00 01 C4 00 00 00 02 00 01 00 00 00 00 00 01 00 01 00 00 00 01 C4 00 00 00 02 00 01 00 00 00 00 00 01 00 01 00 00 00 01
47 0C 00 00 50 00 00 C4 00 00 00 02 00 01 00 00 00 00 00 00 00 01 00 00 00 00 C4 00 00 00 02 00 01 00 00 00 00 00 00 00 00 00 00 00 00 C4 00 00 00 01 00 00 00 00 00 00 00 00 00 00 00 00 00 00
48 0C 00 00 50 00 00 C4 00 00 00 01 00 00 00 00 00 00 00 00 00 00 00 00 00 00 C4 00 00 00 01 00 00 00 00 00 00 00 00 00 00 00 00 00 00 C4 00 00 00 01 00 00 00 00 00 00 00 00 00 00 00 00 00 00
49 0C 00 00 50 00 00 C4 00 00 00 00 00 00 00 00 00 00 00 00 00 00 00 00 00 00 C4 00 00 00 00 00 00 00 00 00 00 00 00 00 00 00 00 00 00 C4 00 00 00 00 00 00 00 00 00 00 00 00 00 00 00 00 00 00
4A 0C 00 00 50 00 00 C4 00 00 00 00 00 00 00 00 00 00 00 00 00 00 00 00 00 00 C4 00 00 00 00 00 00 00 00 00 00 00 00 00 00 00 00 00 00 C4 00 00 00 00 00 00 00 00 00 00 00 00 00 00 00 00 00 00
4B 0C 00 00 50 00 00 C4 00 00 00 00 00 00 00 00 00 00 00 00 00 00 00 00 00 00 C4 00 00 00 00 00 00 00 00 00 00 00 00 00 00 00 00 00 00 C4 00 00 00 01 00 00 00 00 00 00 00 00 00 00 00 00 00 00
4C 0C 00 00 50 00 00 C4 00 00 00 01 00 00 00 00 00 00 00 00 00 00 00 00 00 00 C4 00 00 00 01 00 00 00 00 00 00 00 00 00 00 00 00 00 00 C4 00 00 00 01 00 00 00 00 00 00 00 00 00 01 00 00 00 00
4D 0C 00 00 50 00 00 C4 00 00 00 01 00 01 00 00 00 00 00 00 00 01 00 00 00 00 C4 00 00 00 01 00 00 00 00 00 00 00 00 00 01 00 00 00 00 C4 00 00 00 01 00 00 00 00 00 00 00 00 00 01 00 00 00 00
4E 0C 00 00 50 00 00 C4 00 00 00 02 00 00 00 00 00 00 00 00 00 01 00 00 00 00 C4 00 00 00 01 00 00 00 00 00 00 00 01 00 01 00 00 00 00 C4 00 00 00 01 00 00 00 00 00 00 00 01 00 01 00 00 00 00
4F 0C 00 00 50 00 00 C4 00 00 00 01 00 00 00 00 00 00 00 01 00 01 00 00 00 00 C4 00 00 00 01 00 00 00 01 00 01 00 01 00 01 00 00 00 00 C4 00 00 00 01 00 00 00 01 00 01 00 01 00 01 00 00 00 00
50 0C 00 00 50 00 00 C4 00 00 00 01 00 00 00 01 00 01 00 02 00 02 00 00 00 00 C4 00 00 00 01 00 00 00 01 00 02 00 02 00 02 00 00 00 00 C4 00 00 00 02 00 01 00 01 00 03 00 03 00 02 00 00 00 01
51 0C 00 00 50 00 00 C4 00 00 00 02 00 01 00 02 00 03 00 03 00 02 00 00 00 01 C4 00 00 00 02 00 01 00 02 00 04 00 04 00 03 00 00 00 01 C4 00 00 00 02 00 02 00 02 00 04 00 04 00 03 00 00 00 02
52 0C 00 00 50 00 00 C4 00 00 00 03 00 02 00 03 00 05 00 05 00 03 00 00 00 02 C4 00 00 00 03 00 03 00 03 00 05 00 05 00 04 00 00 00 02 C4 00 00 00 03 00 03 00 03 00 05 00 05 00 04 00 00 00 02
53 0C 00 00 50 00 00 C4 00 00 00 03 00 04 00 04 00 06 00 06 00 05 00 00 00 02 C4 00 00 00 04 00 04 00 04 00 06 00 06 00 05 00 00 00 02 C4 00 00 00 04 00 04 00 04 00 07 00 06 00 05 00 00 00 02
54 0C 00 00 50 00 00 C4 00 00 00 04 00 04 00 04 00 08 00 07 00 05 00 00 00 03 C4 00 00 00 05 00 05 00 05 00 08 00 07 00 05 00 00 00 03 C4 00 00 00 05 00 05 00 05 00 09 00 08 00 06 00 00 00 03
55 0C 00 00 50 00 00 C4 00 00 00 05 00 05 00 05 00 09 00 08 00 06 00 00 00 03 C4 00 00 00 05 00 04 00 06 00 0A 00 09 00 06 00 00 00 03 C4 00 00 00 05 00 04 00 06 00 0A 00 09 00 06 00 00 00 03
56 0C 00 00 50 00 00 C4 00 00 00 05 00 04 00 06 00 0A 00 09 00 06 00 00 00 03 C4 00 00 00 05 00 05 00 06 00 0A 00 09 00 06 00 00 00 03 C4 00 00 00 05 00 05 00 06 00 0A 00 09 00 06 00 00 00 03
57 0C 00 00 50 00 00 C4 00 00 00 05 00 05 00 06 00 0B 00 0A 00 06 00 00 00 03 C4 00 00 00 05 00 06 00 07 00 0C 00 0B 00 07 00 00 00 03 C4 00 00 00 06 00 06 00 07 00 0C 00 0B 00 07 00 00 00 04
58 0C 00 00 50 00 00 C4 00 00 00 06 00 06 00 08 00 0D 00 0C 00 08 00 00 00 04 C4 00 00 00 06 00 07 00 08 00 0D 00 0C 00 08 00 00 00 04 C4 00 00 00 06 00 07 00 09 00 0E 00 0C 00 08 00 00 00 04
59 0C 00 00 50 00 00 C4 00 00 00 07 00 07 00 09 00 0E 00 0D 00 09 00 00 00 04 C4 00 00 00 07 00 07 00 09 00 0F 00 0D 00 09 00 00 00 05 C4 00 00 00 08 00 08 00 09 00 0F 00 0D 00 09 00 00 00 05
5A 0C 00 00 50 00 00 C4 00 00 00 08 00 09 00 09 00 10 00 0E 00 0A 00 00 00 05 C4 00 00 00 08 00 09 00 09 00 11 00 0E 00 0A 00 00 00 05 C4 00 00 00 08 00 09 00 0A 00 11 00 0F 00 0B 00 00 00 05
5B 0C 00 00 50 00 00 C4 00 00 00 08 00 0A 00 0A 00 11 00 10 00 0B 00 00 00 05 C4 00 00 00 09 00 0A 00 0A 00 12 00 10 00 0B 00 00 00 05 C4 00 00 00 09 00 0A 00 0A 00 12 00 10 00 0B 00 00 00 05
5C 0C 00 00 50 00 00 C4 00 00 00 09 00 0A 00 0A 00 13 00 10 00 0B 00 00 00 05 C4 00 00 00 09 00 09 00 0A 00 13 00 10 00 0B 00 00 00 05 C4 00 00 00 09 00 09 00 0B 00 13 00 10 00 0B 00 00 00 06
5D 0C 00 00 50 00 00 C4 00 00 00 08 00 09 00 0B 00 14 00 11 00 0B 00 00 00 06 C4 00 00 00 08 00 0A 00 0B 00 14 00 11 00 0B 00 00 00 06 C4 00 00 00 09 00 0A 00 0C 00 14 00 11 00 0C 00 00 00 06
5E 0C 00 00 50 00 00 C4 00 00 00 09 00 0A 00 0C 00 14 00 12 00 0C 00 00 00 06 C4 00 00 00 09 00 0A 00 0C 00 15 00 12 00 0C 00 00 00 06 C4 00 00 00 09 00 0A 00 0C 00 15 00 13 00 0C 00 00 00 06
5F 0C 00 00 50 00 00 C4 00 00 00 09 00 0B 00 0D 00 16 00 13 00 0D 00 00 00 06 C4 00 00 00 0A 00 0B 00 0D 00 16 00 14 00 0D 00 00 00 06 C4 00 00 00 0A 00 0B 00 0D 00 17 00 14 00 0D 00 00 00 06
60 0C 00 00 50 00 00 C4 00 00 00 0A 00 0C 00 0D 00 17 00 14 00 0D 00 00 00 06 C4 00 00 00 0B 00 0C 00 0E 00 17 00 15 00 0E 00 00 00 06 C4 00 00 00 0B 00 0C 00 0E 00 18 00 15 00 0E 00 00 00 07
61 0C 00 00 50 00 00 C4 00 00 00 0B 00 0C 00 0E 00 18 00 15 00 0E 00 00 00 07 C4 00 00 00 0B 00 0D 00 0E 00 19 00 16 00 0E 00 00 00 07 C4 00 00 00 0C 00 0D 00 0E 00 19 00 16 00 0E 00 00 00 07
62 0C 00 00 50 00 00 C4 00 00 00 0C 00 0D 00 0E 00 19 00 16 00 0E 00 00 00 07 C4 00 00 00 0C 00 0D 00 0E 00 1A 00 16 00 0E 00 00 00 07 C4 00 00 00 0B 00 0D 00 0F 00 1A 00 16 00 0F 00 00 00 07
63 0C 00 00 50 00 00 C4 00 00 00 0B 00 0D 00 0F 00 1A 00 17 00 0F 00 00 00 06 C4 00 00 00 0B 00 0D 00 0F 00 19 00 16 00 0F 00 00 00 06 C4 00 00 00 0B 00 0D 00 0F 00 1A 00 16 00 0F 00 00 00 07
64 0C 00 00 50 00 00 C4 00 00 00 0A 00 0C 00 0F 00 1A 00 16 00 0F 00 00 00 07 C4 00 00 00 0A 00 0C 00 0F 00 1A 00 16 00 0F 00 00 00 07 C4 00 00 00 0B 00 0C 00 0F 00 1B 00 16 00 0F 00 00 00 07
65 0C 00 00 50 00 00 C4 00 00 00 0B 00 0D 00 0F 00 1B 00 17 00 0F 00 00 00 07 C4 00 00 00 0B 00 0D 00 0F 00 1B 00 17 00 0F 00 00 00 07 C4 00 00 00 0B 00 0D 00 0F 00 1A 00 18 00 0F 00 00 00 07
66 0C 00 00 50 00 00 C4 00 00 00 0C 00 0D 00 10 00 1A 00 18 00 0F 00 00 00 07 C4 00 00 00 0C 00 0D 00 10 00 1B 00 18 00 10 00 00 00 07 C4 00 00 00 0C 00 0E 00 10 00 1B 00 17 00 10 00 00 00 08
67 0C 00 00 50 00 00 C4 00 00 00 0C 00 0E 00 10 00 1B 00 18 00 10 00 00 00 08 C4 00 00 00 0D 00 0E 00 10 00 1C 00 18 00 10 00 00 00 08 C4 00 00 00 0D 00 0E 00 10 00 1C 00 18 00 10 00 00 00 08
68 0C 00 00 50 00 00 C4 00 00 00 0D 00 0E 00 10 00 1C 00 18 00 10 00 00 00 08 C4 00 00 00 0D 00 0E 00 10 00 1C 00 18 00 10 00 00 00 08 C4 00 00 00 0D 00 0E 00 10 00 1B 00 18 00 10 00 00 00 08
69 0C 00 00 50 00 00 C4 00 00 00 0C 00 0E 00 10 00 1B 00 18 00 10 00 00 00 08 C4 00 00 00 0C 00 0D 00 10 00 1B 00 18 00 10 00 00 00 07 C4 00 00 00 0C 00 0D 00 10 00 1B 00 18 00 0F 00 00 00 07
6A 0C 00 00 50 00 00 C4 00 00 00 0C 00 0D 00 10 00 1B 00 18 00 0F 00 00 00 08 C4 00 00 00 0C 00 0D 00 10 00 1B 00 18 00 0F 00 00 00 08 C4 00 00 00 0B 00 0D 00 10 00 1B 00 18 00 0F 00 00 00 08
6B 0C 00 00 50 00 00 C4 00 00 00 0B 00 0D 00 0F 00 1B 00 18 00 0F 00 00 00 07 C4 00 00 00 0B 00 0D 00 0F 00 1A 00 17 00 0F 00 00 00 07 C4 00 00 00 0B 00 0C 00 0F 00 1A 00 17 00 0F 00 00 00 07
6C 0C 00 00 50 00 00 C4 00 00 00 0B 00 0C 00 0F 00 1A 00 17 00 0F 00 00 00 07 C4 00 00 00 0B 00 0D 00 0F 00 1A 00 16 00 0F 00 00 00 07 C4 00 00 00 0C 00 0D 00 0F 00 1A 00 16 00 0F 00 00 00 07
6D 0C 00 00 50 00 00 C4 00 00 00 0C 00 0D 00 0F 00 1A 00 17 00 0F 00 00 00 07 C4 00 00 00 0C 00 0D 00 0F 00 1A 00 17 00 0F 00 00 00 07 C4 00 00 00 0B 00 0D 00 0E 00 1A 00 17 00 0F 00 00 00 07
6E 0C 00 00 50 00 00 C4 00 00 00 0B 00 0D 00 0E 00 1A 00 17 00 0F 00 00 00 07 C4 00 00 00 0B 00 0D 00 0F 00 1A 00 16 00 0F 00 00 00 07 C4 00 00 00 0C 00 0D 00 0F 00 1A 00 16 00 0F 00 00 00 07
6F 0C 00 00 50 00 00 C4 00 00 00 0C 00 0D 00 0F 00 19 00 16 00 0F 00 00 00 07 C4 00 00 00 0C 00 0C 00 0E 00 19 00 16 00 0F 00 00 00 07 C4 00 00 00 0B 00 0C 00 0E 00 18 00 15 00 0E 00 00 00 07
70 0C 00 00 50 00 00 C4 00 00 00 0B 00 0C 00 0E 00 18 00 15 00 0E 00 00 00 07 C4 00 00 00 0B 00 0C 00 0E 00 18 00 15 00 0E 00 00 00 07 C4 00 00 00 0A 00 0B 00 0D 00 18 00 15 00 0D 00 00 00 07
71 0C 00 00 50 00 00 C4 00 00 00 0A 00 0B 00 0D 00 17 00 14 00 0D 00 00 00 06 C4 00 00 00 0A 00 0B 00 0D 00 17 00 14 00 0D 00 00 00 06 C4 00 00 00 0A 00 0B 00 0D 00 17 00 14 00 0D 00 00 00 06
72 0C 00 00 50 00 00 C4 00 00 00 09 00 0B 00 0D 00 16 00 13 00 0D 00 00 00 06 C4 00 00 00 09 00 0A 00 0C 00 16 00 13 00 0C 00 00 00 06 C4 00 00 00 09 00 0A 00 0C 00 15 00 12 00 0C 00 00 00 06
73 0C 00 00 50 00 00 C4 00 00 00 09 00 0A 00 0C 00 15 00 12 00 0C 00 00 00 06 C4 00 00 00 09 00 0A 00 0C 00 14 00 12 00 0C 00 00 00 06 C4 00 00 00 09 00 0A 00 0C 00 14 00 11 00 0B 00 00 00 05
74 0C 00 00 50 00 00 C4 00 00 00 09 00 0A 00 0C 00 14 00 12 00 0B 00 00 00 05 C4 00 00 00 0A 00 0A 00 0C 00 14 00 12 00 0B 00 00 00 06 C4 00 00 00 0A 00 0A 00 0B 00 14 00 12 00 0C 00 00 00 06
75 0C 00 00 50 00 00 C4 00 00 00 09 00 0A 00 0B 00 14 00 11 00 0C 00 00 00 06 C4 00 00 00 09 00 0A 00 0B 00 13 00 11 00 0B 00 00 00 05 C4 00 00 00 09 00 0A 00 0A 00 12 00 10 00 0B 00 00 00 05
76 0C 00 00 50 00 00 C4 00 00 00 08 00 09 00 0A 00 12 00 10 00 0B 00 00 00 05 C4 00 00 00 08 00 09 00 0A 00 11 00 0F 00 0A 00 00 00 05 C4 00 00 00 08 00 08 00 0A 00 11 00 0F 00 0A 00 00 00 05
77 0C 00 00 50 00 00 C4 00 00 00 08 00 08 00 0A 00 10 00 0F 00 0A 00 00 00 05 C4 00 00 00 07 00 08 00 09 00 10 00 0E 00 0A 00 00 00 05 C4 00 00 00 07 00 08 00 09 00 10 00 0E 00 09 00 00 00 05
78 0C 00 00 50 00 00 C4 00 00 00 07 00 07 00 09 00 0F 00 0D 00 09 00 00 00 05 C4 00 00 00 06 00 07 00 08 00 0F 00 0D 00 09 00 00 00 04 C4 00 00 00 06 00 06 00 08 00 0E 00 0C 00 08 00 00 00 04
79 0C 00 00 50 00 00 C4 00 00 00 06 00 06 00 07 00 0D 00 0B 00 07 00 00 00 03 C4 00 00 00 05 00 06 00 07 00 0C 00 0B 00 07 00 00 00 03 C4 00 00 00 05 00 05 00 07 00 0C 00 0B 00 07 00 00 00 03
7A 0C 00 00 50 00 00 C4 00 00 00 06 00 05 00 07 00 0B 00 0A 00 07 00 00 00 03 C4 00 00 00 05 00 05 00 07 00 0B 00 0A 00 07 00 00 00 03 C4 00 00 00 05 00 05 00 06 00 0B 00 0A 00 07 00 00 00 04
7B 0C 00 00 50 00 00 C4 00 00 00 06 00 06 00 06 00 0B 00 0A 00 07 00 00 00 04 C4 00 00 00 06 00 06 00 06 00 0B 00 0A 00 07 00 00 00 03 C4 00 00 00 06 00 06 00 06 00 0B 00 09 00 07 00 00 00 03
7C 0C 00 00 50 00 00 C4 00 00 00 05 00 05 00 06 00 0A 00 09 00 07 00 00 00 03 C4 00 00 00 05 00 05 00 05 00 09 00 08 00 06 00 00 00 03 C4 00 00 00 05 00 05 00 05 00 08 00 08 00 06 00 00 00 03
7D 0C 00 00 50 00 00 C4 00 00 00 05 00 04 00 04 00 07 00 07 00 05 00 00 00 02 C4 00 00 00 04 00 04 00 04 00 07 00 07 00 05 00 00 00 02 C4 00 00 00 04 00 03 00 04 00 07 00 07 00 05 00 00 00 02
7E 0C 00 00 50 00 00 C4 00 00 00 03 00 03 00 04 00 06 00 06 00 04 00 00 00 02 C4 00 00 00 03 00 03 00 03 00 06 00 05 00 04 00 00 00 02 C4 00 00 00 02 00 02 00 03 00 06 00 05 00 04 00 00 00 01
7F 0C 00 00 50 00 00 C4 00 00 00 02 00 02 00 03 00 05 00 04 00 04 00 00 00 01 C4 00 00 00 02 00 01 00 02 00 04 00 04 00 03 00 00 00 01 C4 00 00 00 02 00 01 00 02 00 04 00 03 00 03 00 00 00 01
80 0C 00 00 50 00 00 C4 00 00 00 01 00 01 00 01 00 03 00 03 00 03 00 00 00 01 C4 00 00 00 01 00 00 00 01 00 02 00 03 00 02 00 00 00 00 C4 00 00 00 01 00 00 00 01 00 02 00 02 00 02 00 00 00 00
81 0C 00 00 50 00 00 C4 00 00 00 02 00 01 00 01 00 02 00 02 00 02 00 00 00 00 C4 00 00 00 02 00 01 00 01 00 02 00 02 00 02 00 00 00 00 C4 00 00 00 02 00 01 00 01 00 02 00 02 00 02 00 00 00 01
82 0C 00 00 50 00 00 C4 00 00 00 02 00 01 00 01 00 02 00 02 00 02 00 00 00 01 C4 00 00 00 02 00 01 00 01 00 01 00 01 00 02 00 00 00 01 C4 00 00 00 02 00 00 00 00 00 00 00 01 00 01 00 00 00 00
83 0C 00 00 50 00 00 C4 00 00 00 01 00 00 00 00 00 00 00 01 00 01 00 00 00 00 C4 00 00 00 01 00 00 00 00 00 00 00 01 00 01 00 00 00 00 C4 00 00 00 01 00 00 00 00 00 00 00 00 00 01 00 00 00 00
84 0C 00 00 50 00 00 C4 00 00 00 01 00 00 00 00 00 00 00 00 00 01 00 00 00 00 C4 00 00 00 01 00 00 00 00 00 00 00 00 00 01 00 00 00 00 C4 00 00 00 00 00 00 00 00 00 00 00 00 00 01 00 00 00 00
85 0C 00 00 50 00 00 C4 00 00 00 00 00 00 00 00 00 00 00 00 00 00 00 00 00 00 C4 00 00 00 00 00 00 00 00 00 00 00 00 00 00 00 00 00 00 C4 00 00 00 00 00 00 00 00 00 00 00 00 00 00 00 00 FF FF
86 0C 00 00 50 00 00 C4 00 00 00 00 00 00 00 00 00 00 00 00 00 00 00 00 00 00 C4 00 00 00 00 00 00 00 00 00 00 00 00 00 00 00 00 00 00 C4 00 00 00 00 00 00 00 00 00 00 00 00 00 00 00 00 00 00
87 0C 00 00 50 00 00 C4 00 00 00 00 00 00 00 00 00 00 00 00 00 00 00 00 00 00 C4 00 00 00 01 00 00 00 00 00 00 00 00 00 00 00 00 00 00 C4 00 00 00 01 00 00 00 00 00 00 00 00 00 00 00 00 00 00
88 0C 00 00 50 00 00 C4 00 00 00 01 00 00 00 00 00 00 00 00 00 00 00 00 00 00 C4 00 00 00 01 00 00 00 00 00 00 00 00 00 01 00 00 00 00 C4 00 00 00 01 00 00 00 00 00 00 00 00 00 01 00 00 00 00
89 0C 00 00 50 00 00 C4 00 00 00 01 00 00 00 00 00 00 00 00 00 01 00 00 00 00 C4 00 00 00 01 00 00 00 00 00 00 00 00 00 01 00 00 00 01 C4 00 00 00 01 00 00 00 00 00 00 00 00 00 01 00 00 00 01
8A 0C 00 00 50 00 00 C4 00 00 00 01 00 00 00 00 00 00 00 00 00 01 00 00 00 00 C4 00 00 00 01 00 00 00 00 00 00 00 00 00 01 00 00 00 00 C4 00 00 00 01 00 00 00 00 00 00 00 00 00 01 00 00 00 00
8B 0C 00 00 50 00 00 C4 00 00 00 01 00 00 00 00 00 00 00 00 00 01 00 00 00 00 C4 00 00 00 01 00 00 00 00 00 00 00 00 00 01 00 00 00 00 C4 00 00 00 00 00 00 00 00 00 00 00 00 00 01 00 00 00 00
8C 0C 00 00 50 00 00 C4 00 00 00 00 00 00 00 00 00 00 00 00 00 00 00 00 00 00 C4 00 00 00 00 00 00 00 00 00 00 00 00 00 00 00 00 FF FF C4 00 00 00 00 00 00 00 00 00 00 00 00 00 00 00 00 FF FF
8D 0C 00 00 50 00 00 C4 00 00 00 00 00 00 00 00 00 00 00 00 00 01 00 00 FF FF C4 00 00 00 00 00 00 00 00 00 00 00 00 00 01 00 00 00 00 C4 00 00 00 00 00 00 00 00 00 00 00 00 00 01 00 00 00 00
8E 0C 00 00 50 00 00 C4 00 00 00 00 00 00 00 00 00 00 00 00 00 00 00 00 00 00 C4 00 00 00 01 00 00 00 00 00 00 00 00 00 01 00 00 00 00 C4 00 00 00 01 00 00 00 00 00 00 00 00 00 01 00 00 00 00
8F 0C 00 00 50 00 00 C4 00 00 00 01 00 00 00 00 00 00 00 00 00 01 00 00 00 00 C4 00 00 00 01 00 00 00 00 00 00 00 00 00 01 00 00 00 00 C4 00 00 00 01 00 00 00 00 00 00 00 01 00 01 00 00 00 00
90 0C 00 00 50 00 00 C4 00 00 00 02 00 00 00 00 00 00 00 01 00 01 00 00 00 00 C4 00 00 00 02 00 01 00 00 00 00 00 00 00 01 00 00 00 00 C4 00 00 00 02 00 01 00 00 00 00 00 00 00 01 00 00 00 01
91 0C 00 00 50 00 00 C4 00 00 00 02 00 01 00 00 00 00 00 00 00 01 00 00 00 00 C4 00 00 00 01 00 00 00 00 00 00 00 00 00 01 00 00 00 00 C4 00 00 00 01 00 00 00 00 00 00 00 00 00 00 00 00 00 00
92 0C 00 00 50 00 00 C4 00 00 00 01 00 00 00 00 00 00 00 00 00 00 00 00 00 00 C4 00 00 00 00 00 00 00 00 00 00 00 00 00 00 00 00 00 00 C4 00 00 00 00 00 00 00 00 00 00 00 00 00 00 00 00 00 00
93 0C 00 00 50 00 00 C4 00 00 00 00 00 00 00 00 00 00 00 00 00 00 00 00 00 00 C4 00 00 00 00 00 00 00 00 00 00 00 00 00 00 00 00 00 00 C4 00 00 00 00 00 00 00 00 00 00 00 00 00 00 00 00 00 00
94 0C 00 00 50 00 00 C4 00 00 00 00 00 00 00 00 00 00 00 00 00 00 00 00 00 00 C4 00 00 00 00 00 00 00 00 00 00 00 00 00 00 00 00 00 00 C4 00 00 00 00 00 00 00 00 00 00 00 00 00 01 00 00 00 00
95 0C 00 00 50 00 00 C4 00 00 00 00 00 00 00 00 00 00 00 00 00 01 00 00 00 00 C4 00 00 00 00 00 00 00 00 00 00 00 00 00 01 00 00 00 00 C4 00 00 00 01 00 00 00 00 00 00 00 00 00 01 00 00 00 00
96 0C 00 00 50 00 00 C4 00 00 00 01 00 00 00 00 00 00 00 00 00 01 00 00 00 00 C4 00 00 00 01 00 01 00 00 00 00 00 01 00 00 00 00 00 00 C4 00 00 00 02 00 01 00 00 00 00 00 01 00 00 00 00 00 00
97 0C 00 00 50 00 00 C4 00 00 00 02 00 01 00 00 00 00 00 01 00 00 00 00 00 00 C4 00 00 00 01 00 00 00 00 00 00 00 00 00 01 00 00 00 00 C4 00 00 00 01 00 00 00 00 00 00 00 00 00 01 00 00 00 00
98 0C 00 00 50 00 00 C4 00 00 00 01 00 00 00 00 00 00 00 00 00 00 00 00 00 00 C4 00 00 00 00 00 00 00 00 00 00 00 00 00 00 00 00 00 00 C4 00 00 00 00 00 00 00 00 00 00 00 00 00 00 00 00 00 00
99 0C 00 00 50 00 00 C4 00 00 00 01 00 00 00 00 00 00 00 00 00 00 00 00 00 00 C4 00 00 00 01 00 00 00 00 00 00 00 00 00 00 00 00 00 00 C4 00 00 00 01 00 00 00 00 00 00 00 00 00 00 00 00 00 00
9A 0C 00 00 50 00 00 C4 00 00 00 00 00 00 00 00 00 00 00 00 00 00 00 00 00 00 C4 00 00 00 00 00 00 00 00 00 00 00 00 00 01 00 00 00 00 C4 00 00 00 00 00 00 00 00 00 00 00 00 00 01 00 00 00 00
9B 0C 00 00 50 00 00 C4 00 00 00 00 00 00 00 00 00 00 00 00 00 01 00 00 00 00 C4 00 00 00 00 00 00 00 00 00 00 00 00 00 00 00 00 00 00 C4 00 00 00 00 00 00 00 00 00 00 00 00 00 00 00 00 00 00
9C 0C 00 00 50 00 00 C4 00 00 00 01 00 00 00 00 00 00 00 00 00 00 00 00 00 01 C4 00 00 00 01 00 00 00 00 00 00 00 00 00 00 00 00 00 01 C4 00 00 00 01 00 00 00 00 00 00 00 00 00 01 00 00 00 01
9D 0C 00 00 50 00 00 C4 00 00 00 02 00 01 00 00 00 00 00 01 00 01 00 00 00 01 C4 00 00 00 02 00 01 00 00 00 00 00 00 00 01 00 00 00 00 C4 00 00 00 02 00 01 00 00 00 00 00 00 00 01 00 00 00 01
9E 0C 00 00 50 00 00 C4 00 00 00 01 00 01 00 00 00 00 00 00 00 01 00 00 00 01 C4 00 00 00 01 00 00 00 00 00 00 00 00 00 01 00 00 00 01 C4 00 00 00 01 00 00 00 00 00 00 00 00 00 01 00 00 00 00
9F 0C 00 00 50 00 00 C4 00 00 00 01 00 00 00 00 00 00 00 00 00 00 00 00 00 00 C4 00 00 00 01 00 00 00 00 00 00 00 00 00 00 00 00 00 00 C4 00 00 00 01 00 00 00 00 00 00 00 00 00 00 00 00 00 00
A0 0C 00 00 50 00 00 C4 00 00 00 00 00 00 00 00 00 00 00 00 00 01 00 00 00 00 C4 00 00 00 00 00 00 00 00 00 00 00 00 00 01 00 00 00 00 C4 00 00 00 00 00 00 00 00 00 00 00 00 00 01 00 00 00 00
A1 0C 00 00 50 00 00 C4 00 00 00 00 00 00 00 00 00 00 00 00 00 01 00 00 00 00 C4 00 00 00 00 00 00 00 00 00 00 00 00 00 00 00 00 00 00 C4 00 00 00 00 00 00 00 00 00 00 00 00 00 00 00 00 00 00
A2 0C 00 00 50 00 00 C4 00 00 00 00 00 00 00 00 00 00 00 00 00 00 00 00 00 00 C4 00 00 00 00 00 00 00 00 00 00 00 00 00 01 00 00 00 00 C4 00 00 00 01 00 00 00 00 00 00 00 00 00 01 00 00 00 00
A3 0C 00 00 50 00 00 C4 00 00 00 01 00 00 00 00 00 00 00 00 00 01 00 00 00 00 C4 00 00 00 01 00 00 00 00 00 00 00 00 00 00 00 00 00 00 C4 00 00 00 01 00 00 00 00 00 00 00 00 00 00 00 00 00 00
A4 0C 00 00 50 00 00 C4 00 00 00 02 00 00 00 00 00 00 00 00 00 00 00 00 00 00 C4 00 00 00 02 00 01 00 00 00 00 00 00 00 00 00 00 00 00 C4 00 00 00 01 00 01 00 00 00 00 00 00 00 01 00 00 00 00
A5 0C 00 00 50 00 00 C4 00 00 00 01 00 01 00 00 00 00 00 00 00 01 00 00 00 00 C4 00 00 00 01 00 00 00 00 00 00 00 00 00 00 00 00 00 00 C4 00 00 00 01 00 00 00 00 00 00 00 00 00 00 00 00 00 00
A6 0C 00 00 50 00 00 C4 00 00 00 01 00 00 00 00 00 00 00 00 00 00 00 00 00 00 C4 00 00 00 01 00 00 00 00 00 00 00 00 00 00 00 00 00 00 C4 00 00 00 00 00 00 00 00 00 00 00 00 00 01 00 00 00 00
A7 0C 00 00 50 00 00 C4 00 00 00 00 00 00 00 00 00 00 00 00 00 01 00 00 00 00 C4 00 00 00 00 00 00 00 00 00 00 00 00 00 01 00 00 00 00 C4 00 00 00 00 00 00 00 00 00 00 00 00 00 01 00 00 00 00
A8 0C 00 00 50 00 00 C4 00 00 00 00 00 00 00 00 00 00 00 00 00 00 00 00 00 00 C4 00 00 00 00 00 00 00 00 00 00 00 00 00 00 00 00 00 00 C4 00 00 00 00 00 00 00 00 00 00 00 00 00 00 00 00 00 00
A9 0C 00 00 50 00 00 C4 00 00 00 00 00 00 00 00 00 00 00 00 00 01 00 00 00 00 C4 00 00 00 00 00 00 00 00 00 00 00 00 00 01 00 00 00 00 C4 00 00 00 01 00 00 00 00 00 00 00 00 00 01 00 00 00 00
AA 0C 00 00 50 00 00 C4 00 00 00 01 00 00 00 00 00 00 00 00 00 01 00 00 00 00 C4 00 00 00 01 00 00 00 00 00 00 00 00 00 01 00 00 00 00 C4 00 00 00 01 00 00 00 00 00 00 00 00 00 01 00 00 00 00
AB 0C 00 00 50 00 00 C4 00 00 00 01 00 01 00 00 00 00 00 00 00 01 00 00 00 00 C4 00 00 00 01 00 01 00 00 00 00 00 00 00 01 00 00 00 00 C4 00 00 00 01 00 01 00 00 00 00 00 00 00 01 00 00 00 00
AC 0C 00 00 50 00 00 C4 00 00 00 01 00 01 00 00 00 00 00 00 00 01 00 00 00 00 C4 00 00 00 00 00 00 00 00 00 00 00 00 00 01 00 00 00 00 C4 00 00 00 00 00 00 00 00 00 00 00 00 00 01 00 00 00 00
AD 0C 00 00 50 00 00 C4 00 00 00 01 00 00 00 00 00 00 00 00 00 01 00 00 00 00 C4 00 00 00 00 00 00 00 00 00 00 00 00 00 01 00 00 00 00 C4 00 00 00 00 00 00 00 00 00 00 00 00 00 00 00 00 00 00
AE 0C 00 00 50 00 00 C4 00 00 00 00 00 00 00 00 00 00 00 00 00 00 00 00 00 00 C4 00 00 00 00 00 00 00 00 00 00 00 00 00 00 00 00 00 00 C4 00 00 00 00 00 00 00 00 00 00 00 00 00 01 00 00 00 00
AF 0C 00 00 50 00 00 C4 00 00 00 00 00 00 00 00 00 00 00 00 00 01 00 00 00 00 C4 00 00 00 00 00 00 00 00 00 00 00 00 00 01 00 00 00 00 C4 00 00 00 00 00 00 00 00 00 00 00 00 00 01 00 00 00 00
B0 0C 00 00 50 00 00 C4 00 00 00 01 00 00 00 00 00 00 00 00 00 00 00 00 00 00 C4 00 00 00 01 00 00 00 00 00 00 00 00 00 00 00 00 00 00 C4 00 00 00 01 00 00 00 00 00 00 00 00 00 00 00 00 00 00
B1 0C 00 00 50 00 00 C4 00 00 00 01 00 00 00 00 00 00 00 00 00 01 00 00 00 00 C4 00 00 00 01 00 01 00 00 00 00 00 00 00 01 00 00 00 00 C4 00 00 00 01 00 01 00 00 00 00 00 00 00 01 00 00 00 00
B2 0C 00 00 50 00 00 C4 00 00 00 02 00 01 00 00 00 00 00 00 00 01 00 00 00 00 C4 00 00 00 01 00 00 00 00 00 00 00 00 00 01 00 00 00 00 C4 00 00 00 01 00 00 00 00 00 00 00 00 00 01 00 00 00 00
B3 0C 00 00 50 00 00 C4 00 00 00 01 00 00 00 00 00 00 00 00 00 01 00 00 00 00 C4 00 00 00 01 00 00 00 00 00 00 00 00 00 01 00 00 00 00 C4 00 00 00 00 00 00 00 00 00 00 00 00 00 00 00 00 00 00
B4 0C 00 00 50 00 00 C4 00 00 00 00 00 00 00 00 00 00 00 00 00 00 00 00 00 00 C4 00 00 00 00 00 00 00 00 00 00 00 00 00 00 00 00 00 00 C4 00 00 00 00 00 00 00 00 00 00 00 00 00 01 00 00 00 00
B5 0C 00 00 50 00 00 C4 00 00 00 00 00 00 00 00 00 00 00 00 00 01 00 00 00 00 C4 00 00 00 00 00 00 00 00 00 00 00 00 00 01 00 00 00 00 C4 00 00 00 00 00 00 00 00 00 00 00 00 00 00 00 00 00 00
B6 0C 00 00 50 00 00 C4 00 00 00 00 00 00 00 00 00 00 00 00 00 00 00 00 00 00 C4 00 00 00 00 00 00 00 00 00 00 00 00 00 00 00 00 00 00 C4 00 00 00 01 00 00 00 00 00 00 00 00 00 00 00 00 00 00
B7 0C 00 00 50 00 00 C4 00 00 00 01 00 00 00 00 00 00 00 00 00 00 00 00 00 00 C4 00 00 00 01 00 00 00 00 00 00 00 00 00 00 00 00 00 00 C4 00 00 00 01 00 00 00 00 00 00 00 00 00 01 00 00 00 00
B8 0C 00 00 50 00 00 C4 00 00 00 02 00 00 00 00 00 00 00 00 00 01 00 00 00 00 C4 00 00 00 02 00 01 00 00 00 00 00 00 00 01 00 00 00 00 C4 00 00 00 02 00 01 00 00 00 00 00 00 00 01 00 00 00 00
B9 0C 00 00 50 00 00 C4 00 00 00 02 00 01 00 00 00 00 00 01 00 01 00 00 00 01 C4 00 00 00 01 00 01 00 00 00 00 00 01 00 01 00 00 00 01 C4 00 00 00 01 00 00 00 00 00 00 00 00 00 00 00 00 00 01
BA 0C 00 00 50 00 00 C4 00 00 00 01 00 00 00 00 00 00 00 00 00 00 00 00 00 00 C4 00 00 00 01 00 00 00 00 00 00 00 00 00 00 00 00 00 00 C4 00 00 00 01 00 00 00 00 00 00 00 00 00 00 00 00 00 00
BB 0C 00 00 50 00 00 C4 00 00 00 00 00 00 00 00 00 00 00 00 00 01 00 00 00 00 C4 00 00 00 00 00 00 00 00 00 00 00 00 00 01 00 00 00 00 C4 00 00 00 00 00 00 00 00 00 00 00 00 00 01 00 00 00 00
BC 0C 00 00 50 00 00 C4 00 00 00 00 00 00 00 00 00 00 00 00 00 00 00 00 FF FF C4 00 00 00 00 00 00 00 00 00 00 00 00 00 00 00 00 FF FF C4 00 00 00 00 00 00 00 00 00 00 00 00 00 00 00 00 FF FF
BD 0C 00 00 50 00 00 C4 00 00 00 00 00 00 00 00 00 00 00 00 00 01 00 00 00 00 C4 00 00 00 01 00 00 00 00 00 00 00 00 00 01 00 00 00 00 C4 00 00 00 01 00 00 00 00 00 00 00 00 00 01 00 00 00 00
BE 0C 00 00 50 00 00 C4 00 00 00 01 00 00 00 00 00 00 00 00 00 00 00 00 00 00 C4 00 00 00 01 00 00 00 00 00 00 00 00 00 00 00 00 00 01 C4 00 00 00 01 00 01 00 00 00 00 00 01 00 01 00 00 00 01
BF 0C 00 00 50 00 00 C4 00 00 00 01 00 01 00 00 00 00 00 01 00 01 00 00 00 01 C4 00 00 00 02 00 00 00 00 00 00 00 01 00 01 00 00 00 00 C4 00 00 00 02 00 00 00 00 00 00 00 00 00 01 00 00 00 00
C0 0C 00 00 50 00 00 C4 00 00 00 01 00 00 00 00 00 00 00 00 00 01 00 00 00 00 C4 00 00 00 01 00 00 00 00 00 00 00 00 00 01 00 00 00 00 C4 00 00 00 01 00 00 00 00 00 00 00 00 00 01 00 00 00 00
C1 0C 00 00 50 00 00 C4 00 00 00 01 00 00 00 00 00 00 00 00 00 01 00 00 00 00 C4 00 00 00 00 00 00 00 00 00 00 00 00 00 01 00 00 00 00 C4 00 00 00 00 00 00 00 00 00 00 00 00 00 00 00 00 00 00
C2 0C 00 00 50 00 00 C4 00 00 00 00 00 00 00 00 00 00 00 00 00 00 00 00 00 00 C4 00 00 00 00 00 00 00 00 00 00 00 00 00 00 00 00 00 00 C4 00 00 00 00 00 00 00 00 00 00 00 00 00 01 00 00 00 00
C3 0C 00 00 50 00 00 C4 00 00 00 00 00 00 00 00 00 00 00 00 00 01 00 00 00 00 C4 00 00 00 00 00 00 00 00 00 00 00 00 00 01 00 00 00 00 C4 00 00 00 01 00 00 00 00 00 00 00 00 00 01 00 00 00 00
C4 0C 00 00 50 00 00 C4 00 00 00 01 00 00 00 00 00 00 00 00 00 00 00 00 00 00 C4 00 00 00 01 00 00 00 00 00 00 00 00 00 00 00 00 00 00 C4 00 00 00 01 00 00 00 00 00 00 00 00 00 00 00 00 00 00
C5 0C 00 00 50 00 00 C4 00 00 00 01 00 00 00 00 00 00 00 00 00 01 00 00 00 00 C4 00 00 00 01 00 00 00 00 00 00 00 00 00 01 00 00 00 00 C4 00 00 00 01 00 00 00 00 00 00 00 00 00 01 00 00 00 00
C6 0C 00 00 50 00 00 C4 00 00 00 02 00 01 00 00 00 00 00 00 00 01 00 00 00 00 C4 00 00 00 02 00 01 00 00 00 00 00 00 00 01 00 00 00 00 C4 00 00 00 01 00 00 00 00 00 00 00 00 00 01 00 00 00 00
C7 0C 00 00 50 00 00 C4 00 00 00 01 00 00 00 00 00 00 00 00 00 01 00 00 00 00 C4 00 00 00 01 00 00 00 00 00 00 00 00 00 00 00 00 00 00 C4 00 00 00 01 00 00 00 00 00 00 00 00 00 00 00 00 00 00
C8 0C 00 00 50 00 00 C4 00 00 00 01 00 00 00 00 00 00 00 00 00 00 00 00 00 00 C4 00 00 00 00 00 00 00 00 00 00 00 00 00 01 00 00 00 00 C4 00 00 00 00 00 00 00 00 00 00 00 00 00 01 00 00 00 00
C9 0C 00 00 50 00 00 C4 00 00 00 00 00 00 00 00 00 00 00 00 00 01 00 00 00 00 C4 00 00 00 00 00 00 00 00 00 00 00 00 00 00 00 00 FF FF C4 00 00 00 00 00 00 00 00 00 00 00 00 00 00 00 00 FF FF
CA 0C 00 00 50 00 00 C4 00 00 00 00 00 00 00 00 00 00 00 00 00 00 00 00 00 00 C4 00 00 00 00 00 00 00 00 00 00 00 00 00 01 00 00 00 00 C4 00 00 00 00 00 00 00 00 00 00 00 00 00 01 00 00 00 00
CB 0C 00 00 50 00 00 C4 00 00 00 01 00 00 00 00 00 00 00 00 00 01 00 00 00 00 C4 00 00 00 01 00 00 00 00 00 00 00 00 00 01 00 00 00 00 C4 00 00 00 02 00 00 00 00 00 00 00 00 00 01 00 00 00 01
CC 0C 00 00 50 00 00 C4 00 00 00 02 00 00 00 00 00 00 00 00 00 01 00 00 00 01 C4 00 00 00 02 00 00 00 00 00 00 00 00 00 01 00 00 00 01 C4 00 00 00 01 00 01 00 00 00 00 00 01 00 01 00 00 00 01
CD 0C 00 00 50 00 00 C4 00 00 00 01 00 01 00 00 00 00 00 00 00 01 00 00 00 00 C4 00 00 00 01 00 00 00 00 00 00 00 00 00 01 00 00 00 00 C4 00 00 00 01 00 00 00 00 00 00 00 00 00 01 00 00 00 00
CE 0C 00 00 50 00 00 C4 00 00 00 01 00 00 00 00 00 00 00 00 00 00 00 00 00 00 C4 00 00 00 01 00 00 00 00 00 00 00 00 00 00 00 00 00 00 C4 00 00 00 01 00 00 00 00 00 00 00 00 00 00 00 00 00 00
CF 0C 00 00 50 00 00 C4 00 00 00 00 00 00 00 00 00 00 00 00 00 00 00 00 00 00 C4 00 00 00 00 00 00 00 00 00 00 00 00 00 00 00 00 00 00 C4 00 00 00 00 00 00 00 00 00 00 00 00 00 01 00 00 00 00
D0 0C 00 00 50 00 00 C4 00 00 00 00 00 00 00 00 00 00 00 00 00 00 00 00 00 00 C4 00 00 00 00 00 00 00 00 00 00 00 00 00 00 00 00 00 00 C4 00 00 00 00 00 00 00 00 00 00 00 00 00 00 00 00 00 00
D1 0C 00 00 50 00 00 C4 00 00 00 00 00 00 00 00 00 00 00 00 00 00 00 00 00 00 C4 00 00 00 00 00 00 00 00 00 00 00 00 00 00 00 00 00 00 C4 00 00 00 01 00 00 00 00 00 00 00 00 00 01 00 00 00 01
D2 0C 00 00 50 00 00 C4 00 00 00 01 00 00 00 00 00 00 00 00 00 01 00 00 00 01 C4 00 00 00 01 00 00 00 00 00 00 00 00 00 01 00 00 00 01 C4 00 00 00 01 00 01 00 00 00 00 00 00 00 01 00 00 00 00
D3 0C 00 00 50 00 00 C4 00 00 00 01 00 01 00 00 00 00 00 00 00 01 00 00 00 00 C4 00 00 00 02 00 01 00 00 00 00 00 01 00 01 00 00 00 00 C4 00 00 00 02 00 01 00 01 00 00 00 01 00 02 00 00 00 00
D4 0C 00 00 50 00 00 C4 00 00 00 02 00 01 00 01 00 01 00 01 00 02 00 00 00 00 C4 00 00 00 02 00 01 00 01 00 01 00 01 00 02 00 00 00 01 C4 00 00 00 02 00 01 00 01 00 00 00 01 00 02 00 00 00 01
D5 0C 00 00 50 00 00 C4 00 00 00 02 00 01 00 01 00 00 00 02 00 02 00 00 00 01 C4 00 00 00 02 00 01 00 01 00 00 00 01 00 02 00 00 00 01 C4 00 00 00 02 00 01 00 02 00 00 00 02 00 03 00 00 00 01
D6 0C 00 00 50 00 00 C4 00 00 00 02 00 02 00 02 00 01 00 02 00 03 00 00 00 01 C4 00 00 00 02 00 02 00 02 00 01 00 02 00 03 00 00 00 01 C4 00 00 00 02 00 02 00 02 00 02 00 02 00 03 00 00 00 02
D7 0C 00 00 50 00 00 C4 00 00 00 03 00 03 00 02 00 02 00 03 00 03 00 00 00 02 C4 00 00 00 03 00 03 00 03 00 02 00 03 00 04 00 00 00 02 C4 00 00 00 03 00 03 00 03 00 03 00 03 00 04 00 00 00 02
D8 0C 00 00 50 00 00 C4 00 00 00 03 00 03 00 03 00 03 00 04 00 04 00 00 00 02 C4 00 00 00 03 00 04 00 03 00 03 00 04 00 04 00 00 00 02 C4 00 00 00 04 00 04 00 03 00 03 00 04 00 05 00 00 00 02
D9 0C 00 00 50 00 00 C4 00 00 00 04 00 05 00 03 00 04 00 04 00 05 00 00 00 02 C4 00 00 00 04 00 05 00 04 00 04 00 05 00 05 00 00 00 03 C4 00 00 00 05 00 05 00 04 00 04 00 05 00 05 00 00 00 03
DA 0C 00 00 50 00 00 C4 00 00 00 05 00 06 00 04 00 05 00 05 00 06 00 00 00 03 C4 00 00 00 06 00 06 00 04 00 05 00 05 00 06 00 00 00 03 C4 00 00 00 06 00 06 00 05 00 05 00 06 00 06 00 00 00 04
DB 0C 00 00 50 00 00 C4 00 00 00 06 00 07 00 05 00 05 00 06 00 06 00 00 00 04 C4 00 00 00 05 00 07 00 05 00 05 00 06 00 07 00 00 00 04 C4 00 00 00 05 00 06 00 05 00 05 00 06 00 07 00 00 00 04
DC 0C 00 00 50 00 00 C4 00 00 00 05 00 06 00 05 00 05 00 06 00 07 00 00 00 04 C4 00 00 00 05 00 06 00 05 00 05 00 06 00 07 00 00 00 03 C4 00 00 00 05 00 06 00 05 00 05 00 06 00 07 00 00 00 03
DD 0C 00 00 50 00 00 C4 00 00 00 05 00 06 00 05 00 05 00 06 00 07 00 00 00 03 C4 00 00 00 05 00 06 00 06 00 06 00 07 00 07 00 00 00 04 C4 00 00 00 05 00 06 00 06 00 06 00 07 00 07 00 00 00 04
DE 0C 00 00 50 00 00 C4 00 00 00 05 00 07 00 06 00 06 00 07 00 07 00 00 00 04 C4 00 00 00 05 00 07 00 06 00 06 00 07 00 07 00 00 00 04 C4 00 00 00 06 00 07 00 05 00 06 00 06 00 08 00 00 00 04
DF 0C 00 00 50 00 00 C4 00 00 00 06 00 07 00 06 00 06 00 06 00 08 00 00 00 04 C4 00 00 00 06 00 07 00 06 00 06 00 07 00 08 00 00 00 04 C4 00 00 00 07 00 08 00 06 00 07 00 07 00 08 00 00 00 04
E0 0C 00 00 50 00 00 C4 00 00 00 07 00 08 00 06 00 07 00 07 00 08 00 00 00 04 C4 00 00 00 07 00 08 00 06 00 07 00 07 00 08 00 00 00 05 C4 00 00 00 07 00 08 00 06 00 07 00 07 00 08 00 00 00 05
E1 0C 00 00 50 00 00 C4 00 00 00 06 00 08 00 06 00 06 00 07 00 07 00 00 00 05 C4 00 00 00 06 00 07 00 06 00 06 00 07 00 08 00 00 00 04 C4 00 00 00 06 00 07 00 06 00 06 00 07 00 08 00 00 00 04
E2 0C 00 00 50 00 00 C4 00 00 00 06 00 07 00 06 00 06 00 07 00 08 00 00 00 04 C4 00 00 00 06 00 07 00 06 00 06 00 07 00 08 00 00 00 04 C4 00 00 00 05 00 07 00 06 00 06 00 06 00 08 00 00 00 04
E3 0C 00 00 50 00 00 C4 00 00 00 05 00 06 00 05 00 06 00 06 00 07 00 00 00 04 C4 00 00 00 05 00 06 00 05 00 05 00 06 00 07 00 00 00 04 C4 00 00 00 05 00 05 00 05 00 05 00 06 00 06 00 00 00 03
E4 0C 00 00 50 00 00 C4 00 00 00 05 00 05 00 05 00 05 00 05 00 06 00 00 00 03 C4 00 00 00 04 00 05 00 05 00 05 00 05 00 06 00 00 00 03 C4 00 00 00 04 00 05 00 05 00 04 00 05 00 06 00 00 00 03
E5 0C 00 00 50 00 00 C4 00 00 00 05 00 05 00 05 00 04 00 05 00 06 00 00 00 03 C4 00 00 00 05 00 05 00 05 00 04 00 05 00 06 00 00 00 03 C4 00 00 00 05 00 05 00 04 00 04 00 05 00 06 00 00 00 03
E6 0C 00 00 50 00 00 C4 00 00 00 05 00 05 00 04 00 04 00 04 00 06 00 00 00 03 C4 00 00 00 05 00 05 00 04 00 04 00 04 00 06 00 00 00 03 C4 00 00 00 04 00 05 00 04 00 04 00 05 00 06 00 00 00 03
E7 0C 00 00 50 00 00 C4 00 00 00 04 00 05 00 04 00 04 00 05 00 06 00 00 00 03 C4 00 00 00 04 00 04 00 03 00 04 00 05 00 05 00 00 00 02 C4 00 00 00 04 00 04 00 03 00 03 00 04 00 04 00 00 00 02
E8 0C 00 00 50 00 00 C4 00 00 00 04 00 03 00 03 00 03 00 04 00 04 00 00 00 02 C4 00 00 00 03 00 03 00 03 00 02 00 03 00 04 00 00 00 02 C4 00 00 00 03 00 03 00 02 00 02 00 03 00 03 00 00 00 02
E9 0C 00 00 50 00 00 C4 00 00 00 03 00 03 00 02 00 02 00 03 00 03 00 00 00 02 C4 00 00 00 02 00 02 00 02 00 02 00 02 00 03 00 00 00 02 C4 00 00 00 02 00 02 00 02 00 02 00 02 00 03 00 00 00 02
EA 0C 00 00 50 00 00 C4 00 00 00 02 00 02 00 02 00 01 00 02 00 03 00 00 00 02 C4 00 00 00 02 00 01 00 01 00 01 00 02 00 02 00 00 00 01 C4 00 00 00 01 00 01 00 01 00 00 00 01 00 02 00 00 00 01
EB 0C 00 00 50 00 00 C4 00 00 00 01 00 01 00 01 00 00 00 01 00 01 00 00 00 01 C4 00 00 00 01 00 00 00 00 00 00 00 01 00 01 00 00 00 00 C4 00 00 00 01 00 00 00 00 00 00 00 00 00 01 00 00 00 00
EC 0C 00 00 50 00 00 C4 00 00 00 01 00 00 00 00 00 00 00 00 00 01 00 00 00 00 C4 00 00 00 01 00 00 00 00 00 00 00 00 00 01 00 00 00 00 C4 00 00 00 01 00 00 00 00 00 00 00 00 00 01 00 00 00 00
ED 0C 00 00 50 00 00 C4 00 00 00 01 00 00 00 00 00 00 00 00 00 01 00 00 00 00 C4 00 00 00 01 00 00 00 00 00 00 00 00 00 01 00 00 00 00 C4 00 00 00 01 00 00 00 00 00 00 00 00 00 01 00 00 00 00
EE 0C 00 00 50 00 00 C4 00 00 00 01 00 00 00 00 00 00 00 01 00 01 00 00 00 00 C4 00 00 00 01 00 01 00 00 00 00 00 01 00 01 00 00 00 01 C4 00 00 00 01 00 01 00 00 00 00 00 01 00 01 00 00 00 01
EF 0C 00 00 50 00 00 C4 00 00 00 01 00 00 00 00 00 00 00 00 00 01 00 00 00 01 C4 00 00 00 01 00 00 00 00 00 00 00 00 00 00 00 00 00 01 C4 00 00 00 01 00 00 00 00 00 00 00 00 00 00 00 00 00 00
F0 0C 00 00 50 00 00 C4 00 00 00 01 00 00 00 00 00 00 00 00 00 00 00 00 00 00 C4 00 00 00 00 00 00 00 00 00 00 00 00 00 00 00 00 00 00 C4 00 00 00 00 00 00 00 00 00 00 00 00 00 00 00 00 00 00
F1 0C 00 00 50 00 00 C4 00 00 00 00 00 00 00 00 00 00 00 00 00 00 00 00 00 00 C4 00 00 00 00 00 00 00 00 00 00 00 00 00 00 00 00 00 00 C4 00 00 00 00 00 00 00 00 00 00 00 00 00 00 00 00 00 00
F2 0C 00 00 50 00 00 C4 00 00 00 00 00 00 00 00 00 00 00 00 00 00 00 00 00 00 C4 00 00 00 00 00 00 00 00 00 00 00 00 00 00 00 00 00 00 C4 00 00 00 00 00 00 00 00 00 00 00 00 00 01 00 00 00 00
F3 0C 00 00 50 00 00 C4 00 00 00 01 00 00 00 00 00 00 00 00 00 01 00 00 00 00 C4 00 00 00 01 00 00 00 00 00 00 00 00 00 01 00 00 00 00 C4 00 00 00 01 00 00 00 00 00 00 00 00 00 01 00 00 00 01
F4 0C 00 00 50 00 00 C4 00 00 00 01 00 00 00 00 00 00 00 00 00 01 00 00 00 01 C4 00 00 00 02 00 01 00 00 00 00 00 00 00 01 00 00 00 01 C4 00 00 00 02 00 01 00 00 00 00 00 00 00 01 00 00 00 01
F5 0C 00 00 50 00 00 C4 00 00 00 02 00 00 00 00 00 00 00 00 00 01 00 00 00 01 C4 00 00 00 02 00 00 00 00 00 00 00 00 00 01 00 00 00 01 C4 00 00 00 01 00 00 00 00 00 00 00 00 00 01 00 00 00 00
F6 0C 00 00 50 00 00 C4 00 00 00 01 00 00 00 00 00 00 00 00 00 01 00 00 00 00 C4 00 00 00 01 00 00 00 00 00 00 00 00 00 01 00 00 00 00 C4 00 00 00 01 00 00 00 00 00 00 00 00 00 01 00 00 00 00
F7 0C 00 00 50 00 00 C4 00 00 00 01 00 00 00 00 00 00 00 00 00 01 00 00 00 00 C4 00 00 00 00 00 00 00 00 00 00 00 00 00 01 00 00 00 00 C4 00 00 00 00 00 00 00 00 00 00 00 00 00 01 00 00 00 00
F8 0C 00 00 50 00 00 C4 00 00 00 00 00 00 00 00 00 00 00 00 00 00 00 00 00 00 C4 00 00 00 00 00 00 00 00 00 00 00 00 00 00 00 00 00 00 C4 00 00 00 00 00 00 00 00 00 00 00 00 00 00 00 00 00 00
F9 0C 00 00 50 00 00 C4 00 00 00 00 00 00 00 00 00 00 00 00 00 00 00 00 00 00 C4 00 00 00 00 00 00 00 00 00 00 00 00 00 01 00 00 00 00 C4 00 00 00 01 00 00 00 00 00 00 00 00 00 01 00 00 00 00
FA 0C 00 00 50 00 00 C4 00 00 00 01 00 00 00 00 00 00 00 00 00 01 00 00 00 00 C4 00 00 00 01 00 00 00 00 00 00 00 00 00 01 00 00 00 00 C4 00 00 00 01 00 00 00 00 00 00 00 00 00 01 00 00 00 00
FB 0C 00 00 50 00 00 C4 00 00 00 02 00 01 00 00 00 00 00 00 00 01 00 00 00 00 C4 00 00 00 02 00 01 00 00 00 00 00 00 00 01 00 00 00 00 C4 00 00 00 02 00 01 00 00 00 00 00 00 00 01 00 00 00 00
FC 0C 00 00 50 00 00 C4 00 00 00 02 00 01 00 00 00 00 00 00 00 01 00 00 00 00 C4 00 00 00 01 00 00 00 00 00 00 00 00 00 01 00 00 00 00 C4 00 00 00 01 00 00 00 00 00 00 00 00 00 01 00 00 00 00
FD 0C 00 00 50 00 00 C4 00 00 00 01 00 00 00 00 00 00 00 00 00 01 00 00 00 00 C4 00 00 00 01 00 00 00 00 00 00 00 00 00 01 00 00 00 00 C4 00 00 00 00 00 00 00 00 00 00 00 00 00 01 00 00 00 00
FE 0C 00 00 50 00 00 C4 00 00 00 00 00 00 00 00 00 00 00 00 00 00 00 00 00 00 C4 00 00 00 00 00 00 00 00 00 00 00 00 00 00 00 00 00 00 C4 00 00 00 00 00 00 00 00 00 00 00 00 00 00 00 00 00 00
FF 0C 00 00 50 00 00 C4 00 00 00 00 00 00 00 00 FF FF 00 00 00 00 00 00 FF FF C4 00 00 00 00 00 00 00 00 FF FF 00 00 00 00 00 00 FF FF C4 00 00 00 00 00 00 00 00 00 00 00 00 00 00 00 00 FF FF
00 0D 00 00 50 00 00 C4 00 00 00 00 00 00 00 00 00 00 00 00 00 00 00 00 00 00 C4 00 00 00 00 00 00 00 00 00 00 00 00 00 00 00 00 00 00 C4 00 00 00 00 00 00 00 00 00 00 00 00 00 00 00 00 00 00
01 0D 00 00 50 00 00 C4 00 00 00 01 00 00 00 00 00 00 00 00 00 01 00 00 00 00 C4 00 00 00 01 00 00 00 00 00 00 00 00 00 01 00 00 00 00 C4 00 00 00 01 00 00 00 00 00 00 00 00 00 01 00 00 00 00
02 0D 00 00 50 00 00 C4 00 00 00 02 00 00 00 00 00 00 00 00 00 01 00 00 00 00 C4 00 00 00 02 00 00 00 00 00 00 00 00 00 01 00 00 00 00 C4 00 00 00 02 00 00 00 00 00 00 00 01 00 01 00 00 00 01
03 0D 00 00 50 00 00 C4 00 00 00 01 00 00 00 00 00 00 00 01 00 01 00 00 00 01 C4 00 00 00 01 00 00 00 00 00 00 00 00 00 01 00 00 00 00 C4 00 00 00 01 00 00 00 00 00 00 00 00 00 00 00 00 00 00
04 0D 00 00 50 00 00 C4 00 00 00 01 00 00 00 00 00 00 00 00 00 00 00 00 00 00 C4 00 00 00 01 00 00 00 00 00 00 00 00 00 01 00 00 00 00 C4 00 00 00 00 00 00 00 00 00 00 00 00 00 01 00 00 00 00
05 0D 00 00 50 00 00 C4 00 00 00 00 00 00 00 00 00 00 00 00 00 01 00 00 00 00 C4 00 00 00 00 00 00 00 00 00 00 00 00 00 01 00 00 00 00 C4 00 00 00 00 00 00 00 00 00 00 00 00 00 01 00 00 00 00
06 0D 00 00 50 00 00 C4 00 00 00 00 00 00 00 00 00 00 00 00 00 00 00 00 00 00 C4 00 00 00 00 00 00 00 00 00 00 00 00 00 00 00 00 00 00 C4 00 00 00 00 00 00 00 01 00 00 00 00 00 00 00 00 00 00
07 0D 00 00 50 00 00 C4 00 00 00 00 00 00 00 01 00 00 00 00 00 00 00 00 00 00 C4 00 00 00 00 00 00 00 01 00 00 00 00 00 00 00 00 00 00 C4 00 00 00 00 FF FF 00 01 00 00 FF FF FF FF 00 00 00 00
08 0D 00 00 50 00 00 C4 00 00 FF FF FF FF 00 00 FF FF FF FF FF FF 00 00 FF FF C4 00 00 FF FE FF FE FF FF FF FF FF FF FF FE 00 00 FF FF C4 00 00 FF FD FF FD FF FE FF FE FF FE FF FD 00 00 FF FF
09 0D 00 00 50 00 00 C4 00 00 FF FC FF FC FF FD FF FD FF FC FF FC 00 00 FF FF C4 00 00 FF FB FF FB FF FC FF FC FF FB FF FB 00 00 FF FF C4 00 00 FF FB FF FB FF FC FF FB FF FA FF FA 00 00 FF FF
0A 0D 00 00 50 00 00 C4 00 00 FF FA FF FA FF FC FF FB FF FA FF FA 00 00 FF FF C4 00 00 FF FA FF FA FF FD FF FB FF FA FF F9 00 00 FF FF C4 00 00 FF FA FF FA FF FD FF FB FF FA FF F9 00 00 FF FF
0B 0D 00 00 50 00 00 C4 00 00 FF F9 FF F9 FF FD FF FC FF FA FF F9 00 00 00 00 C4 00 00 FF F8 FF F8 FF FE FF FD FF FA FF F8 00 00 00 00 C4 00 00 FF F8 FF F8 FF FF FF FF FF FB FF F9 00 00 00 02
0C 0D 00 00 50 00 00 C4 00 00 FF F9 FF F9 00 00 00 01 FF FD FF F9 00 00 00 03 C4 00 00 FF FB FF FB 00 02 00 05 FF FF FF FB 00 00 00 04 C4 00 00 FF FD FF FD 00 05 00 0A 00 02 FF FD 00 00 00 06
0D 0D 00 00 50 00 00 C4 00 00 FF FE FF FF 00 07 00 0E 00 06 FF FF 00 00 00 07 C4 00 00 00 00 00 00 00 09 00 12 00 0A 00 00 00 00 00 08 C4 00 00 00 00 00 01 00 0A 00 15 00 0D 00 02 00 00 00 08
0E 0D 00 00 50 00 00 C4 00 00 00 00 00 02 00 0B 00 17 00 10 00 04 00 00 00 09 C4 00 00 00 02 00 04 00 0C 00 19 00 12 00 06 00 00 00 09 C4 00 00 00 04 00 06 00 0E 00 1B 00 15 00 09 00 00 00 0A
0F 0D 00 00 50 00 00 C4 00 00 00 07 00 0A 00 10 00 1F 00 1A 00 0D 00 00 00 0B C4 00 00 00 0B 00 0F 00 13 00 25 00 20 00 13 00 00 00 0C C4 00 00 00 0F 00 14 00 16 00 2A 00 27 00 18 00 00 00 0D
10 0D 00 00 50 00 00 C4 00 00 00 13 00 19 00 18 00 30 00 2E 00 1E 00 00 00 0E C4 00 00 00 15 00 1C 00 1A 00 34 00 34 00 23 00 00 00 0E C4 00 00 00 16 00 1E 00 1B 00 37 00 37 00 26 00 00 00 0E
11 0D 00 00 50 00 00 C4 00 00 00 17 00 20 00 1C 00 39 00 3A 00 28 00 00 00 0E C4 00 00 00 18 00 21 00 1C 00 3A 00 3C 00 2B 00 00 00 0E C4 00 00 00 1A 00 23 00 1D 00 3C 00 3E 00 2E 00 00 00 0F
12 0D 00 00 50 00 00 C4 00 00 00 1C 00 26 00 1D 00 3E 00 42 00 32 00 00 00 0F C4 00 00 00 1F 00 2A 00 1C 00 3F 00 45 00 36 00 00 00 0E C4 00 00 00 22 00 2E 00 19 00 3E 00 47 00 3A 00 00 00 0C
13 0D 00 00 50 00 00 C4 00 00 00 24 00 31 00 15 00 3B 00 47 00 3D 00 00 00 09 C4 00 00 00 25 00 33 00 10 00 35 00 45 00 3E 00 00 00 05 C4 00 00 00 25 00 33 00 0B 00 30 00 42 00 3E 00 00 00 02
14 0D 00 00 50 00 00 C4 00 00 00 25 00 32 00 07 00 2A 00 3F 00 3D 00 00 FF FF C4 00 00 00 25 00 31 00 05 00 27 00 3C 00 3B 00 00 FF FE C4 00 00 00 24 00 31 00 03 00 23 00 3A 00 39 00 00 FF FC
15 0D 00 00 50 00 00 C4 00 00 00 24 00 30 00 01 00 20 00 37 00 38 00 00 FF FB C4 00 00 00 23 00 2F FF FD 00 1B 00 34 00 35 00 00 FF F8 C4 00 00 00 21 00 2D FF F6 00 13 00 2F 00 32 00 00 FF F4
16 0D 00 00 50 00 00 C4 00 00 00 1E 00 29 FF ED 00 09 00 28 00 2E 00 00 FF EF C4 00 00 00 1B 00 24 FF E3 FF FF 00 20 00 29 00 00 FF E9 C4 00 00 00 17 00 1F FF DA FF F5 00 18 00 24 00 00 FF E5
17 0D 00 00 50 00 00 C4 00 00 00 14 00 1C FF D3 FF EE 00 12 00 1F 00 00 FF E1 C4 00 00 00 13 00 19 FF CF FF E8 00 0E 00 1B 00 00 FF DF C4 00 00 00 12 00 18 FF CD FF E4 00 0C 00 18 00 00 FF DD
18 0D 00 00 50 00 00 C4 00 00 00 11 00 17 FF CB FF E2 00 0A 00 15 00 00 FF DC C4 00 00 00 0F 00 14 FF C9 FF DE 00 07 00 11 00 00 FF DB C4 00 00 00 0D 00 11 FF C7 FF DB 00 03 00 0E 00 00 FF DA
19 0D 00 00 50 00 00 C4 00 00 00 09 00 0D FF C6 FF D9 FF FE 00 0A 00 00 FF DA C4 00 00 00 05 00 08 FF C6 FF D8 FF F9 00 05 00 00 FF DA C4 00 00 00 02 00 04 FF C7 FF D9 FF F4 00 01 00 00 FF DC
1A 0D 00 00 50 00 00 C4 00 00 00 00 00 00 FF CB FF DB FF F1 FF FF 00 00 FF DF C4 00 00 00 00 FF FF FF CF FF DD FF F0 FF FD 00 00 FF E2 C4 00 00 FF FF FF FF FF D2 FF E0 FF F0 FF FC 00 00 FF E5
1B 0D 00 00 50 00 00 C4 00 00 FF FF FF FF FF D5 FF E1 FF F1 FF FC 00 00 FF E6 C4 00 00 FF FF FF FF FF D6 FF E3 FF F1 FF FC 00 00 FF E7 C4 00 00 FF FF FF FE FF D8 FF E5 FF F1 FF FC 00 00 FF E8
1C 0D 00 00 50 00 00 C4 00 00 FF FE FF FE FF DB FF E7 FF F2 FF FB 00 00 FF EA C4 00 00 FF FE FF FD FF E0 FF EB FF F2 FF FB 00 00 FF ED C4 00 00 FF FD FF FD FF E5 FF EF FF F3 FF FA 00 00 FF F1
1D 0D 00 00 50 00 00 C4 00 00 FF FD FF FD FF EB FF F3 FF F5 FF FA 00 00 FF F4 C4 00 00 FF FD FF FD FF F0 FF F7 FF F7 FF FB 00 00 FF F7 C4 00 00 FF FD FF FD FF F3 FF F9 FF F9 FF FB 00 00 FF F9
1E 0D 00 00 50 00 00 C4 00 00 FF FD FF FD FF F5 FF FA FF FA FF FB 00 00 FF FA C4 00 00 FF FD FF FD FF F6 FF FA FF FB FF FC 00 00 FF FB C4 00 00 FF FD FF FD FF F7 FF FB FF FB FF FC 00 00 FF FB
1F 0D 00 00 50 00 00 C4 00 00 FF FD FF FD FF F8 FF FC FF FC FF FC 00 00 FF FC C4 00 00 FF FD FF FD FF FA FF FD FF FD FF FD 00 00 FF FC C4 00 00 FF FE FF FE FF FC FF FE FF FD FF FD 00 00 FF FD
20 0D 00 00 50 00 00 C4 00 00 FF FF FF FE FF FE FF FF FF FE FF FE 00 00 FF FE C4 00 00 00 00 FF FF FF FF 00 00 FF FF FF FF 00 00 FF FF C4 00 00 00 00 00 00 00 00 00 00 FF FF FF FF 00 00 00 00
21 0D 00 00 50 00 00 C4 00 00 00 00 00 00 00 00 00 00 00 00 00 00 00 00 00 00 C4 00 00 00 00 00 00 00 00 00 00 00 00 00 00 00 00 00 00 C4 00 00 00 00 00 00 00 00 00 00 00 00 00 00 00 00 00 01
22 0D 00 00 50 00 00 C4 00 00 00 00 00 00 00 00 00 01 00 00 00 00 00 00 00 01 C4 00 00 00 00 00 00 00 00 00 01 00 00 00 00 00 00 00 01 C4 00 00 00 00 00 00 00 00 00 01 00 00 00 00 00 00 00 01
23 0D 00 00 50 00 00 C4 00 00 00 01 00 00 00 00 00 01 00 01 00 00 00 00 00 01 C4 00 00 00 01 00 01 00 00 00 01 00 01 00 00 00 00 00 01 C4 00 00 00 01 00 01 00 00 00 01 00 01 00 00 00 00 00 01
24 0D 00 00 50 00 00 C4 00 00 00 00 00 01 00 00 00 01 00 01 00 00 00 00 00 01 C4 00 00 00 00 00 00 00 00 00 01 00 01 00 00 00 00 00 01 C4 00 00 00 00 00 00 00 00 00 01 00 00 00 00 00 00 00 01
25 0D 00 00 50 00 00 C4 00 00 00 00 00 00 00 00 00 01 00 00 00 00 00 00 00 00 C4 00 00 00 00 00 00 00 00 00 01 00 00 00 00 00 00 00 00 C4 00 00 00 00 00 00 00 00 00 00 00 00 00 00 00 00 00 00
26 0D 00 00 50 00 00 C4 00 00 00 00 00 00 00 00 00 00 00 00 00 00 00 00 00 00 C4 00 00 00 00 00 00 00 00 00 00 00 00 00 00 00 00 00 00 C4 00 00 00 00 00 00 00 00 00 00 00 00 00 00 00 00 00 00
27 0D 00 00 50 00 00 C4 00 00 00 00 00 00 00 00 00 00 00 00 00 00 00 00 00 00 C4 00 00 00 00 00 00 00 00 00 00 00 00 00 00 00 00 FF FF C4 00 00 00 00 00 00 00 00 00 00 00 00 00 00 00 00 FF FF
28 0D 00 00 50 00 00 C4 00 00 00 00 00 00 00 00 00 00 00 00 00 00 00 00 FF FF C4 00 00 00 00 00 00 00 00 00 00 00 00 00 00 00 00 FF FF C4 00 00 00 00 00 00 00 00 00 00 00 00 00 00 00 00 00 00
29 0D 00 00 50 00 00 C4 00 00 00 00 00 00 00 00 00 00 00 00 00 00 00 00 00 00 C4 00 00 00 00 00 00 00 00 00 01 00 00 00 00 00 00 00 00 C4 00 00 00 00 00 00 00 00 00 01 00 00 00 00 00 00 00 00
2A 0D 00 00 50 00 00 C4 00 00 00 01 00 01 00 00 00 01 00 00 00 00 00 00 00 00 C4 00 00 00 01 00 01 00 00 00 01 00 00 00 00 00 00 00 00 C4 00 00 00 01 00 01 00 00 00 01 00 00 00 00 00 00 00 00
2B 0D 00 00 50 00 00 C4 00 00 00 00 00 00 00 00 00 00 00 01 00 00 00 00 00 00 C4 00 00 00 00 00 00 00 00 00 00 00 01 00 00 00 00 00 00 C4 00 00 00 00 00 00 00 00 00 00 00 00 00 00 00 00 00 00
2C 0D 00 00 50 00 00 C4 00 00 00 00 00 00 00 00 00 00 00 00 00 00 00 00 00 00 C4 00 00 00 00 00 00 00 00 00 00 00 00 00 00 00 00 00 00 C4 00 00 00 00 00 00 00 00 00 00 00 00 00 00 00 00 00 00
2D 0D 00 00 50 00 00 C4 00 00 00 00 00 00 00 00 00 00 00 00 00 00 00 00 00 00 C4 00 00 00 00 00 00 00 00 00 00 00 00 00 00 00 00 00 00 C4 00 00 00 00 00 00 00 00 00 00 00 00 00 00 00 00 00 00
2E 0D 00 00 50 00 00 C4 00 00 00 00 00 00 00 00 00 00 00 00 00 00 00 00 00 00 C4 00 00 00 00 00 00 00 00 00 00 00 00 00 00 00 00 00 00 C4 00 00 00 00 00 00 00 00 00 00 00 00 00 00 00 00 00 00
2F 0D 00 00 50 00 00 C4 00 00 00 00 00 00 00 00 00 00 00 00 00 00 00 00 00 00 C4 00 00 00 00 00 00 00 00 00 00 00 00 00 00 00 00 00 00 C4 00 00 00 00 00 00 00 00 00 00 00 00 00 00 00 00 00 00
30 0D 00 00 50 00 00 C4 00 00 00 00 00 00 00 00 00 01 00 00 00 00 00 00 00 00 C4 00 00 00 00 00 00 00 00 00 01 00 00 00 00 00 00 00 00 C4 00 00 00 01 00 01 00 00 00 00 00 00 00 00 00 00 00 00
31 0D 00 00 50 00 00 C4 00 00 00 01 00 01 00 00 00 00 00 00 00 00 00 00 00 00 C4 00 00 00 01 00 01 00 00 00 00 00 00 00 00 00 00 00 00 C4 00 00 00 00 00 00 00 00 00 00 00 00 00 00 00 00 00 00
32 0D 00 00 50 00 00 C4 00 00 00 00 00 00 00 00 00 00 00 00 00 00 00 00 00 00 C4 00 00 00 00 00 00 00 00 00 00 00 00 00 00 00 00 00 00 C4 00 00 00 00 00 00 00 00 00 00 00 00 00 00 00 00 00 00
33 0D 00 00 50 00 00 C4 00 00 00 00 00 00 00 00 00 00 00 00 00 00 00 00 00 00 C4 00 00 00 00 00 00 00 00 00 00 00 00 00 00 00 00 00 00 C4 00 00 00 00 00 00 00 00 00 00 00 00 00 00 00 00 00 00
34 0D 00 00 50 00 00 C4 00 00 00 00 00 00 00 00 00 00 00 00 00 00 00 00 FF FF C4 00 00 00 00 00 00 00 00 00 00 00 00 00 00 00 00 FF FF C4 00 00 00 00 00 00 00 00 00 00 00 00 00 00 00 00 FF FF
35 0D 00 00 50 00 00 C4 00 00 00 00 00 00 00 00 00 00 00 00 00 00 00 00 FF FF C4 00 00 00 00 00 00 00 00 00 00 00 00 00 00 00 00 FF FF C4 00 00 00 00 00 00 00 00 00 00 00 00 00 00 00 00 00 00
36 0D 00 00 50 00 00 C4 00 00 00 00 00 00 00 00 00 00 00 00 00 00 00 00 00 00 C4 00 00 00 00 00 00 00 00 00 00 00 00 00 00 00 00 00 00 C4 00 00 00 00 00 00 00 00 00 00 00 00 00 00 00 00 00 00
37 0D 00 00 50 00 00 C4 00 00 00 00 00 00 00 00 00 01 00 00 00 00 00 00 00 01 C4 00 00 00 01 00 00 00 00 00 01 00 00 00 00 00 00 00 01 C4 00 00 00 01 00 01 00 00 00 01 00 00 00 00 00 00 00 01
38 0D 00 00 50 00 00 C4 00 00 00 01 00 01 00 00 00 01 00 00 00 00 00 00 00 01 E4 00 00 00 00 00 01 00 00 00 00 00 01 00 00 00 00 00 01 C4 00 00 00 00 00 00 00 00 00 00 00 01 00 00 00 00 00 01
39 0D 00 00 50 00 00 C4 00 00 00 00 00 00 00 00 00 00 00 01 00 00 00 00 00 01 C4 00 00 00 00 00 00 00 00 00 01 00 00 00 00 00 00 00 00 C4 00 00 00 00 00 00 00 00 00 01 00 00 00 00 00 00 00 00
3A 0D 00 00 50 00 00 C4 00 00 00 00 00 00 00 00 00 01 00 00 00 00 00 00 00 00 C4 00 00 00 00 00 00 00 00 00 00 00 00 00 00 00 00 00 00 C4 00 00 00 00 00 00 00 00 00 00 00 00 00 00 00 00 00 00
3B 0D 00 00 50 00 00 C4 00 00 00 00 00 00 00 00 00 00 00 00 00 00 00 00 00 00 C4 00 00 00 00 00 00 00 00 00 00 00 00 00 00 00 00 00 00 C4 00 00 00 00 00 00 00 00 00 00 00 00 00 00 00 00 00 00
3C 0D 00 00 50 00 00 C4 00 00 00 00 00 00 00 00 00 00 00 00 00 00 00 00 00 00 C4 00 00 00 00 00 00 00 00 00 00 00 00 00 00 00 00 FF FF C4 00 00 00 00 00 00 00 00 00 00 00 00 00 00 00 00 FF FF
3D 0D 00 00 50 00 00 C4 00 00 00 00 00 00 00 00 00 01 00 00 00 00 00 00 FF FF C4 00 00 00 00 00 00 00 00 00 01 00 00 00 00 00 00 00 00 C4 00 00 00 00 00 00 00 00 00 01 00 00 00 00 00 00 00 00
3E 0D 00 00 50 00 00 C4 00 00 00 00 00 00 00 00 00 01 00 00 00 00 00 00 00 00 C4 00 00 00 01 00 00 00 00 00 01 00 00 00 00 00 00 00 00 C4 00 00 00 00 00 01 00 00 00 01 00 00 00 00 00 00 00 00
3F 0D 00 00 50 00 00 C4 00 00 00 00 00 01 00 00 00 01 00 01 00 00 00 00 00 00 C4 00 00 00 00 00 01 00 00 00 01 00 01 00 00 00 00 00 00 C4 00 00 00 00 00 00 00 00 00 00 00 00 00 00 00 00 00 00
40 0D 00 00 50 00 00 C4 00 00 00 00 00 00 00 00 00 00 00 00 00 00 00 00 00 00 C4 00 00 00 00 00 00 00 00 00 01 00 00 00 00 00 00 00 00 C4 00 00 00 00 00 00 00 00 00 00 00 00 00 00 00 00 00 00
41 0D 00 00 50 00 00 C4 00 00 00 00 00 00 00 00 00 00 00 00 00 00 00 00 00 00 C4 00 00 00 00 00 00 00 00 00 00 00 00 00 00 00 00 00 00 C4 00 00 00 00 00 00 00 00 00 00 00 00 00 00 00 00 00 00
42 0D 00 00 50 00 00 C4 00 00 00 00 00 00 00 00 00 00 00 00 00 00 00 00 00 00 C4 00 00 00 00 00 00 00 00 00 00 00 00 00 00 00 00 00 00 C4 00 00 00 00 00 00 00 00 00 00 00 00 00 00 00 00 00 00
43 0D 00 00 50 00 00 C4 00 00 00 00 00 00 00 00 00 00 00 00 00 00 00 00 00 00 C4 00 00 00 00 00 00 00 00 00 00 00 00 00 00 00 00 00 00 C4 00 00 00 00 00 00 00 00 00 00 00 00 00 00 00 00 00 00
44 0D 00 00 50 00 00 C4 00 00 00 00 00 00 00 00 00 00 00 00 00 00 00 00 00 00 C4 00 00 00 00 00 00 00 00 00 00 00 00 00 00 00 00 00 00 C4 00 00 00 00 00 00 00 00 00 00 00 00 00 00 00 00 00 00
45 0D 00 00 50 00 00 C4 00 00 00 01 00 01 00 00 00 01 00 01 00 00 00 00 00 01 C4 00 00 00 01 00 01 00 00 00 01 00 01 00 00 00 00 00 01 C4 00 00 00 01 00 01 00 00 00 00 00 01 00 00 00 00 00 01
46 0D 00 00 50 00 00 C4 00 00 00 00 00 00 00 00 00 00 00 00 00 00 00 00 00 00 C4 00 00 00 00 00 00 00 00 00 00 00 00 00 00 00 00 00 00 C4 00 00 00 00 00 00 00 00 00 00 00 00 00 00 00 00 00 00
47 0D 00 00 50 00 00 C4 00 00 00 00 00 00 00 00 00 00 00 00 00 00 00 00 00 00 C4 00 00 00 00 00 00 00 00 00 00 00 00 00 00 00 00 FF FF C4 00 00 00 00 00 00 00 00 00 00 00 00 00 00 00 00 FF FF
48 0D 00 00 50 00 00 C4 00 00 00 00 00 00 00 00 00 00 00 00 00 00 00 00 FF FF C4 00 00 00 00 00 00 00 00 00 00 00 00 00 00 00 00 FF FF C4 00 00 00 00 00 00 00 00 00 00 00 00 00 00 00 00 FF FF
49 0D 00 00 50 00 00 C4 00 00 00 00 00 00 00 00 00 00 00 00 00 00 00 00 00 00 C4 00 00 00 00 00 00 00 00 00 00 00 00 00 00 00 00 00 00 C4 00 00 00 00 00 00 00 00 00 01 00 01 00 00 00 00 00 00
4A 0D 00 00 50 00 00 C4 00 00 00 00 00 00 00 00 00 01 00 01 00 00 00 00 00 00 C4 00 00 00 01 00 01 00 00 00 02 00 01 00 00 00 00 00 00 C4 00 00 00 01 00 01 00 01 00 02 00 02 00 01 00 00 00 01
4B 0D 00 00 50 00 00 C4 00 00 00 01 00 01 00 01 00 03 00 02 00 01 00 00 00 01 C4 00 00 00 01 00 02 00 01 00 03 00 02 00 01 00 00 00 01 C4 00 00 00 02 00 02 00 02 00 04 00 03 00 02 00 00 00 01
4C 0D 00 00 50 00 00 C4 00 00 00 02 00 02 00 02 00 04 00 04 00 02 00 00 00 01 C4 00 00 00 02 00 02 00 02 00 05 00 04 00 02 00 00 00 02 C4 00 00 00 02 00 03 00 03 00 05 00 05 00 03 00 00 00 02
4D 0D 00 00 50 00 00 C4 00 00 00 02 00 03 00 03 00 06 00 05 00 03 00 00 00 02 C4 00 00 00 02 00 03 00 03 00 06 00 05 00 02 00 00 00 01 C4 00 00 00 02 00 03 00 03 00 06 00 05 00 02 00 00 00 01
4E 0D 00 00 50 00 00 C4 00 00 00 02 00 03 00 03 00 07 00 05 00 02 00 00 00 01 C4 00 00 00 02 00 03 00 03 00 07 00 05 00 03 00 00 00 01 C4 00 00 00 02 00 03 00 04 00 07 00 06 00 03 00 00 00 02
4F 0D 00 00 50 00 00 C4 00 00 00 02 00 03 00 04 00 08 00 06 00 04 00 00 00 02 C4 00 00 00 02 00 03 00 04 00 09 00 07 00 04 00 00 00 02 C4 00 00 00 03 00 04 00 05 00 09 00 07 00 04 00 00 00 02
50 0D 00 00 50 00 00 C4 00 00 00 03 00 04 00 05 00 0A 00 08 00 05 00 00 00 02 C4 00 00 00 03 00 04 00 06 00 0A 00 09 00 05 00 00 00 03 C4 00 00 00 03 00 05 00 06 00 0B 00 09 00 05 00 00 00 03
51 0D 00 00 50 00 00 C4 00 00 00 04 00 05 00 06 00 0B 00 09 00 05 00 00 00 03 C4 00 00 00 04 00 05 00 06 00 0B 00 09 00 06 00 00 00 03 C4 00 00 00 05 00 06 00 06 00 0C 00 0A 00 06 00 00 00 04
52 0D 00 00 50 00 00 C4 00 00 00 05 00 06 00 06 00 0D 00 0A 00 06 00 00 00 04 C4 00 00 00 05 00 07 00 07 00 0D 00 0B 00 07 00 00 00 04 C4 00 00 00 06 00 07 00 07 00 0E 00 0C 00 07 00 00 00 03
53 0D 00 00 50 00 00 C4 00 00 00 06 00 07 00 07 00 0F 00 0C 00 08 00 00 00 03 C4 00 00 00 06 00 07 00 08 00 0F 00 0C 00 08 00 00 00 03 C4 00 00 00 06 00 07 00 08 00 0F 00 0D 00 08 00 00 00 04
54 0D 00 00 50 00 00 C4 00 00 00 06 00 08 00 08 00 0F 00 0D 00 08 00 00 00 04 C4 00 00 00 06 00 08 00 08 00 10 00 0D 00 08 00 00 00 04 C4 00 00 00 06 00 08 00 09 00 10 00 0D 00 08 00 00 00 05
55 0D 00 00 50 00 00 C4 00 00 00 06 00 08 00 09 00 10 00 0D 00 08 00 00 00 05 C4 00 00 00 06 00 08 00 09 00 10 00 0D 00 08 00 00 00 05 C4 00 00 00 06 00 08 00 09 00 11 00 0E 00 08 00 00 00 04
56 0D 00 00 50 00 00 C4 00 00 00 07 00 08 00 0A 00 12 00 0E 00 09 00 00 00 04 C4 00 00 00 07 00 08 00 0A 00 12 00 0F 00 09 00 00 00 04 C4 00 00 00 07 00 09 00 0A 00 13 00 10 00 0A 00 00 00 05
57 0D 00 00 50 00 00 C4 00 00 00 07 00 09 00 0A 00 14 00 10 00 0A 00 00 00 05 C4 00 00 00 07 00 0A 00 0A 00 14 00 11 00 0A 00 00 00 05 C4 00 00 00 08 00 0A 00 0B 00 14 00 11 00 0A 00 00 00 05
58 0D 00 00 50 00 00 C4 00 00 00 08 00 0A 00 0B 00 15 00 11 00 0B 00 00 00 05 C4 00 00 00 09 00 0A 00 0B 00 15 00 12 00 0B 00 00 00 06 C4 00 00 00 09 00 0A 00 0C 00 15 00 12 00 0B 00 00 00 06
59 0D 00 00 50 00 00 C4 00 00 00 09 00 0B 00 0C 00 16 00 13 00 0B 00 00 00 06 C4 00 00 00 09 00 0B 00 0C 00 17 00 13 00 0B 00 00 00 06 C4 00 00 00 0A 00 0C 00 0C 00 17 00 14 00 0B 00 00 00 07
5A 0D 00 00 50 00 00 C4 00 00 00 0A 00 0C 00 0D 00 18 00 14 00 0C 00 00 00 07 C4 00 00 00 0A 00 0C 00 0D 00 18 00 14 00 0C 00 00 00 07 C4 00 00 00 09 00 0B 00 0D 00 18 00 14 00 0C 00 00 00 07
5B 0D 00 00 50 00 00 C4 00 00 00 09 00 0B 00 0D 00 18 00 14 00 0D 00 00 00 06 C4 00 00 00 09 00 0B 00 0D 00 18 00 14 00 0D 00 00 00 06 C4 00 00 00 09 00 0B 00 0D 00 18 00 14 00 0C 00 00 00 06
5C 0D 00 00 50 00 00 C4 00 00 00 09 00 0B 00 0D 00 18 00 14 00 0C 00 00 00 07 C4 00 00 00 09 00 0B 00 0D 00 19 00 15 00 0C 00 00 00 07 C4 00 00 00 09 00 0C 00 0E 00 19 00 15 00 0C 00 00 00 07
5D 0D 00 00 50 00 00 C4 00 00 00 09 00 0C 00 0E 00 1A 00 16 00 0C 00 00 00 07 C4 00 00 00 0A 00 0C 00 0E 00 1A 00 16 00 0D 00 00 00 06 C4 00 00 00 0A 00 0C 00 0E 00 1A 00 16 00 0D 00 00 00 06
5E 0D 00 00 50 00 00 C4 00 00 00 0A 00 0C 00 0F 00 1A 00 16 00 0D 00 00 00 06 C4 00 00 00 0A 00 0D 00 0F 00 1A 00 16 00 0E 00 00 00 07 C4 00 00 00 0A 00 0D 00 0F 00 1B 00 16 00 0E 00 00 00 07
5F 0D 00 00 50 00 00 C4 00 00 00 0A 00 0D 00 0F 00 1B 00 17 00 0E 00 00 00 07 C4 00 00 00 0B 00 0E 00 0F 00 1B 00 17 00 0E 00 00 00 07 C4 00 00 00 0B 00 0E 00 0F 00 1B 00 17 00 0E 00 00 00 08
60 0D 00 00 50 00 00 C4 00 00 00 0B 00 0E 00 0F 00 1C 00 17 00 0F 00 00 00 08 C4 00 00 00 0B 00 0E 00 10 00 1C 00 18 00 0F 00 00 00 08 C4 00 00 00 0B 00 0E 00 10 00 1C 00 18 00 0F 00 00 00 07
61 0D 00 00 50 00 00 C4 00 00 00 0B 00 0E 00 10 00 1C 00 18 00 0E 00 00 00 07 C4 00 00 00 0B 00 0E 00 0F 00 1D 00 18 00 0E 00 00 00 07 C4 00 00 00 0A 00 0E 00 0F 00 1D 00 18 00 0E 00 00 00 08
62 0D 00 00 50 00 00 C4 00 00 00 0A 00 0E 00 10 00 1D 00 18 00 0F 00 00 00 08 C4 00 00 00 0B 00 0D 00 10 00 1D 00 18 00 0F 00 00 00 08 C4 00 00 00 0B 00 0D 00 10 00 1C 00 18 00 0F 00 00 00 08
63 0D 00 00 50 00 00 C4 00 00 00 0A 00 0D 00 10 00 1C 00 18 00 0E 00 00 00 07 C4 00 00 00 0A 00 0D 00 0F 00 1C 00 18 00 0E 00 00 00 07 C4 00 00 00 0A 00 0D 00 0F 00 1C 00 18 00 0E 00 00 00 07
64 0D 00 00 50 00 00 C4 00 00 00 0A 00 0D 00 0F 00 1C 00 18 00 0E 00 00 00 07 C4 00 00 00 0A 00 0D 00 0F 00 1C 00 18 00 0E 00 00 00 07 C4 00 00 00 0B 00 0D 00 0F 00 1C 00 18 00 0E 00 00 00 07
65 0D 00 00 50 00 00 C4 00 00 00 0B 00 0E 00 10 00 1C 00 18 00 0F 00 00 00 08 C4 00 00 00 0B 00 0E 00 10 00 1C 00 18 00 0F 00 00 00 08 C4 00 00 00 0B 00 0E 00 10 00 1C 00 18 00 0F 00 00 00 08
66 0D 00 00 50 00 00 C4 00 00 00 0B 00 0E 00 10 00 1C 00 18 00 0F 00 00 00 08 C4 00 00 00 0B 00 0E 00 0F 00 1C 00 18 00 0E 00 00 00 07 C4 00 00 00 0B 00 0E 00 0F 00 1C 00 18 00 0E 00 00 00 07
67 0D 00 00 50 00 00 C4 00 00 00 0B 00 0E 00 10 00 1C 00 18 00 0E 00 00 00 07 C4 00 00 00 0B 00 0E 00 10 00 1C 00 17 00 0F 00 00 00 08 C4 00 00 00 0B 00 0D 00 10 00 1B 00 17 00 0F 00 00 00 08
68 0D 00 00 50 00 00 C4 00 00 00 0B 00 0D 00 10 00 1B 00 17 00 0F 00 00 00 08 C4 00 00 00 0A 00 0D 00 0F 00 1B 00 17 00 0E 00 00 00 07 C4 00 00 00 0A 00 0D 00 0F 00 1B 00 16 00 0E 00 00 00 07
69 0D 00 00 50 00 00 C4 00 00 00 0A 00 0D 00 0F 00 1B 00 16 00 0E 00 00 00 07 C4 00 00 00 0A 00 0C 00 0F 00 1B 00 16 00 0E 00 00 00 07 C4 00 00 00 09 00 0C 00 0E 00 1A 00 15 00 0D 00 00 00 06
6A 0D 00 00 50 00 00 C4 00 00 00 09 00 0C 00 0E 00 1A 00 15 00 0D 00 00 00 06 C4 00 00 00 09 00 0C 00 0E 00 19 00 15 00 0D 00 00 00 06 C4 00 00 00 09 00 0B 00 0E 00 19 00 15 00 0D 00 00 00 07
6B 0D 00 00 50 00 00 C4 00 00 00 09 00 0B 00 0E 00 19 00 15 00 0D 00 00 00 07 C4 00 00 00 09 00 0C 00 0E 00 19 00 15 00 0D 00 00 00 07 C4 00 00 00 0A 00 0C 00 0E 00 19 00 15 00 0D 00 00 00 07
6C 0D 00 00 50 00 00 C4 00 00 00 0A 00 0C 00 0D 00 19 00 15 00 0D 00 00 00 07 C4 00 00 00 0A 00 0C 00 0D 00 18 00 14 00 0D 00 00 00 07 C4 00 00 00 0A 00 0C 00 0D 00 18 00 14 00 0C 00 00 00 06
6D 0D 00 00 50 00 00 C4 00 00 00 09 00 0C 00 0D 00 18 00 14 00 0C 00 00 00 06 C4 00 00 00 09 00 0B 00 0D 00 17 00 14 00 0C 00 00 00 06 C4 00 00 00 09 00 0B 00 0C 00 17 00 13 00 0C 00 00 00 06
6E 0D 00 00 50 00 00 C4 00 00 00 09 00 0B 00 0C 00 17 00 13 00 0C 00 00 00 06 C4 00 00 00 09 00 0B 00 0C 00 16 00 13 00 0B 00 00 00 06 C4 00 00 00 08 00 0A 00 0C 00 16 00 12 00 0B 00 00 00 06
6F 0D 00 00 50 00 00 C4 00 00 00 08 00 0A 00 0C 00 15 00 12 00 0B 00 00 00 06 C4 00 00 00 08 00 0A 00 0C 00 15 00 12 00 0B 00 00 00 05 C4 00 00 00 07 00 0A 00 0B 00 14 00 11 00 0A 00 00 00 05
70 0D 00 00 50 00 00 C4 00 00 00 07 00 09 00 0B 00 14 00 11 00 0A 00 00 00 05 C4 00 00 00 07 00 08 00 0B 00 14 00 10 00 0A 00 00 00 05 C4 00 00 00 07 00 08 00 0A 00 13 00 0F 00 0A 00 00 00 05
71 0D 00 00 50 00 00 C4 00 00 00 06 00 07 00 0A 00 13 00 0F 00 09 00 00 00 05 C4 00 00 00 06 00 07 00 0A 00 12 00 0F 00 09 00 00 00 05 C4 00 00 00 06 00 07 00 09 00 12 00 0F 00 09 00 00 00 05
72 0D 00 00 50 00 00 C4 00 00 00 06 00 08 00 09 00 11 00 0E 00 09 00 00 00 05 C4 00 00 00 06 00 08 00 09 00 11 00 0E 00 09 00 00 00 05 C4 00 00 00 06 00 08 00 09 00 11 00 0E 00 08 00 00 00 05
73 0D 00 00 50 00 00 C4 00 00 00 07 00 08 00 09 00 10 00 0E 00 08 00 00 00 05 C4 00 00 00 07 00 08 00 09 00 10 00 0E 00 08 00 00 00 04 C4 00 00 00 06 00 08 00 08 00 10 00 0D 00 08 00 00 00 04
74 0D 00 00 50 00 00 C4 00 00 00 06 00 07 00 08 00 0F 00 0C 00 08 00 00 00 04 C4 00 00 00 06 00 07 00 07 00 0E 00 0C 00 07 00 00 00 04 C4 00 00 00 05 00 07 00 07 00 0E 00 0B 00 07 00 00 00 04
75 0D 00 00 50 00 00 C4 00 00 00 05 00 06 00 07 00 0D 00 0B 00 07 00 00 00 04 C4 00 00 00 05 00 06 00 07 00 0D 00 0A 00 06 00 00 00 04 C4 00 00 00 05 00 06 00 07 00 0C 00 0A 00 06 00 00 00 03
76 0D 00 00 50 00 00 C4 00 00 00 04 00 05 00 06 00 0C 00 09 00 06 00 00 00 03 C4 00 00 00 04 00 05 00 06 00 0B 00 09 00 06 00 00 00 03 C4 00 00 00 03 00 05 00 06 00 0B 00 08 00 05 00 00 00 03
77 0D 00 00 50 00 00 C4 00 00 00 03 00 04 00 05 00 0A 00 08 00 05 00 00 00 03 C4 00 00 00 03 00 04 00 05 00 09 00 08 00 05 00 00 00 02 C4 00 00 00 03 00 03 00 05 00 09 00 07 00 04 00 00 00 02
78 0D 00 00 50 00 00 C4 00 00 00 02 00 03 00 04 00 08 00 07 00 04 00 00 00 02 C4 00 00 00 02 00 03 00 04 00 08 00 07 00 03 00 00 00 02 C4 00 00 00 02 00 03 00 04 00 08 00 06 00 03 00 00 00 02
79 0D 00 00 50 00 00 C4 00 00 00 02 00 03 00 04 00 08 00 06 00 03 00 00 00 02 C4 00 00 00 02 00 03 00 04 00 08 00 06 00 03 00 00 00 02 C4 00 00 00 02 00 03 00 03 00 07 00 06 00 03 00 00 00 02
7A 0D 00 00 50 00 00 C4 00 00 00 03 00 03 00 03 00 06 00 05 00 03 00 00 00 02 C4 00 00 00 03 00 03 00 03 00 06 00 05 00 03 00 00 00 02 C4 00 00 00 02 00 02 00 02 00 05 00 04 00 02 00 00 00 01
7B 0D 00 00 50 00 00 C4 00 00 00 02 00 02 00 02 00 05 00 04 00 02 00 00 00 01 C4 00 00 00 02 00 02 00 02 00 04 00 03 00 02 00 00 00 01 C4 00 00 00 01 00 02 00 02 00 04 00 03 00 02 00 00 00 01
7C 0D 00 00 50 00 00 C4 00 00 00 01 00 02 00 01 00 03 00 03 00 02 00 00 00 01 C4 00 00 00 01 00 01 00 01 00 03 00 03 00 02 00 00 00 01 C4 00 00 00 01 00 01 00 01 00 02 00 02 00 01 00 00 00 00
7D 0D 00 00 50 00 00 C4 00 00 00 00 00 01 00 01 00 02 00 02 00 01 00 00 00 00 C4 00 00 00 00 00 00 00 00 00 01 00 01 00 00 00 00 00 00 C4 00 00 00 00 00 00 00 00 00 01 00 01 00 00 00 00 00 00
7E 0D 00 00 50 00 00 C4 00 00 00 00 00 00 00 00 00 00 00 00 00 00 00 00 00 00 C4 00 00 00 00 00 00 00 00 00 00 00 00 00 00 00 00 FF FF C4 00 00 00 00 00 00 00 00 00 00 00 00 00 00 00 00 FF FF
7F 0D 00 00 50 00 00 C4 00 00 00 00 00 00 00 00 00 00 00 00 00 00 00 00 FF FF C4 00 00 00 00 00 00 00 00 00 00 00 00 00 00 00 00 FF FF C4 00 00 00 00 00 00 00 00 00 00 00 00 00 00 00 00 00 00
80 0D 00 00 50 00 00 C4 00 00 00 00 00 00 00 00 00 01 00 00 00 00 00 00 00 00 C4 00 00 00 00 00 00 00 00 00 01 00 00 00 00 00 00 00 00 C4 00 00 00 00 00 00 00 00 00 00 00 00 00 00 00 00 00 00
81 0D 00 00 50 00 00 C4 00 00 00 00 00 01 00 00 00 00 00 00 00 00 00 00 00 01 C4 00 00 00 01 00 01 00 00 00 00 00 00 00 00 00 00 00 00 C4 00 00 00 01 00 01 00 00 00 00 00 00 00 00 00 00 00 00
82 0D 00 00 50 00 00 C4 00 00 00 00 00 00 00 00 00 00 00 00 00 00 00 00 00 00 C4 00 00 00 00 00 00 00 00 00 00 00 00 00 00 00 00 00 00 C4 00 00 00 00 00 00 00 00 00 00 00 00 00 00 00 00 00 00
83 0D 00 00 50 00 00 C4 00 00 00 00 00 00 00 00 00 00 00 00 00 00 00 00 00 00 C4 00 00 00 00 00 00 00 00 00 00 00 00 00 00 00 00 00 00 C4 00 00 00 00 00 00 00 00 00 00 00 00 00 00 00 00 00 00
84 0D 00 00 50 00 00 C4 00 00 00 00 00 00 00 00 00 00 00 00 00 00 00 00 00 00 C4 00 00 00 00 00 00 00 00 00 00 00 00 00 00 00 00 00 00 C4 00 00 00 00 00 00 00 00 00 00 00 00 00 00 00 00 00 00
85 0D 00 00 50 00 00 C4 00 00 00 00 00 00 00 00 00 00 00 00 00 00 00 00 00 00 C4 00 00 00 00 00 00 00 00 00 00 00 00 00 00 00 00 00 00 C4 00 00 00 00 00 00 00 00 00 00 00 00 00 00 00 00 00 00
86 0D 00 00 50 00 00 C4 00 00 00 00 00 00 00 00 00 00 00 00 00 00 00 00 00 00 C4 00 00 00 00 00 00 00 00 00 01 00 00 00 00 00 00 00 00 C4 00 00 00 00 00 00 00 00 00 01 00 00 00 00 00 00 00 00
87 0D 00 00 50 00 00 C4 00 00 00 00 00 00 00 00 00 01 00 00 00 00 00 00 00 00 C4 00 00 00 00 00 00 00 00 00 00 00 00 00 00 00 00 00 01 C4 00 00 00 00 00 00 00 00 00 00 00 01 00 00 00 00 00 01
88 0D 00 00 50 00 00 C4 00 00 00 00 00 00 00 00 00 00 00 01 00 00 00 00 00 01 C4 00 00 00 01 00 00 00 00 00 00 00 01 00 00 00 00 00 00 C4 00 00 00 01 00 00 00 00 00 01 00 00 00 00 00 00 00 00
89 0D 00 00 50 00 00 C4 00 00 00 00 00 00 00 00 00 01 00 00 00 00 00 00 00 00 C4 00 00 00 00 00 00 00 00 00 01 00 00 00 00 00 00 00 00 C4 00 00 00 00 00 00 00 00 00 01 00 00 00 00 00 00 00 00
8A 0D 00 00 50 00 00 C4 00 00 00 00 00 00 00 00 00 00 00 00 00 00 00 00 00 00 C4 00 00 00 00 00 00 00 00 00 00 00 00 00 00 00 00 00 00 C4 00 00 00 00 00 00 00 00 00 00 00 00 00 00 00 00 00 00
8B 0D 00 00 50 00 00 C4 00 00 00 00 00 00 00 00 00 00 00 00 00 00 00 00 00 00 C4 00 00 00 00 00 00 00 00 00 00 00 00 00 00 00 00 00 00 C4 00 00 00 00 00 00 00 00 00 00 00 00 00 00 00 00 00 00
8C 0D 00 00 50 00 00 C4 00 00 00 00 00 00 00 00 00 00 00 00 00 00 00 00 00 00 C4 00 00 00 00 00 00 00 00 00 00 00 00 00 00 00 00 00 00 C4 00 00 00 00 00 00 00 00 00 00 00 00 00 00 00 00 00 00
8D 0D 00 00 50 00 00 C4 00 00 00 00 00 00 00 00 00 00 00 00 00 00 00 00 00 00 C4 00 00 00 00 00 00 00 00 00 00 00 00 00 00 00 00 00 00 C4 00 00 00 00 00 00 00 00 00 00 00 00 00 00 00 00 00 00
8E 0D 00 00 50 00 00 C4 00 00 00 00 00 00 00 00 00 01 00 00 00 00 00 00 00 00 C4 00 00 00 00 00 01 00 00 00 01 00 00 00 00 00 00 00 00 C4 00 00 00 00 00 01 00 00 00 01 00 00 00 00 00 00 00 00
8F 0D 00 00 50 00 00 C4 00 00 00 00 00 01 00 00 00 00 00 00 00 00 00 00 00 00 C4 00 00 00 00 00 00 00 00 00 00 00 00 00 00 00 00 00 00 C4 00 00 00 00 00 00 00 00 00 00 00 00 00 00 00 00 00 00
90 0D 00 00 50 00 00 C4 00 00 00 00 00 00 00 00 00 00 00 00 00 00 00 00 00 00 C4 00 00 00 00 00 00 00 00 00 01 00 00 00 00 00 00 00 00 C4 00 00 00 00 00 00 00 00 00 01 00 00 00 00 00 00 00 00
91 0D 00 00 50 00 00 C4 00 00 00 00 00 00 00 00 00 01 00 00 00 00 00 00 00 00 C4 00 00 00 00 00 00 00 00 00 00 00 00 00 00 00 00 00 00 C4 00 00 00 00 00 00 00 00 00 00 00 00 00 00 00 00 00 00
92 0D 00 00 50 00 00 C4 00 00 00 00 00 00 00 00 00 00 00 00 00 00 00 00 FF FF C4 00 00 00 00 00 00 00 00 00 00 00 00 00 00 00 00 FF FF C4 00 00 00 00 00 00 00 00 00 00 00 00 00 00 00 00 FF FF
93 0D 00 00 50 00 00 C4 00 00 00 00 00 00 00 00 00 00 00 00 00 00 00 00 00 00 C4 00 00 00 00 00 00 00 00 00 00 00 00 00 00 00 00 00 00 C4 00 00 00 00 00 00 00 00 00 01 00 00 00 00 00 00 00 00
94 0D 00 00 50 00 00 C4 00 00 00 00 00 00 00 00 00 01 00 00 00 00 00 00 00 00 C4 00 00 00 00 00 00 00 00 00 01 00 00 00 00 00 00 00 00 C4 00 00 00 00 00 00 00 00 00 00 00 00 00 00 00 00 00 00
95 0D 00 00 50 00 00 C4 00 00 00 01 00 00 00 00 00 00 00 00 00 00 00 00 00 00 C4 00 00 00 01 00 00 00 00 00 00 00 00 00 00 00 00 00 00 C4 00 00 00 01 00 00 00 00 00 01 00 00 00 00 00 00 00 00
96 0D 00 00 50 00 00 C4 00 00 00 00 00 00 00 00 00 01 00 01 00 00 00 00 00 00 C4 00 00 00 00 00 00 00 00 00 01 00 01 00 00 00 00 00 00 C4 00 00 00 00 00 00 00 00 00 01 00 01 00 00 00 00 00 00
97 0D 00 00 50 00 00 C4 00 00 00 00 00 00 00 00 00 00 00 00 00 00 00 00 00 00 C4 00 00 00 00 00 00 00 00 00 00 00 00 00 00 00 00 00 00 C4 00 00 00 00 00 00 00 00 00 00 00 00 00 00 00 00 00 00
98 0D 00 00 50 00 00 C4 00 00 00 00 00 00 00 00 00 00 00 00 00 00 00 00 00 00 C4 00 00 00 00 00 00 00 00 00 00 00 00 00 00 00 00 00 00 C4 00 00 00 00 00 00 00 00 00 00 00 00 00 00 00 00 00 00
99 0D 00 00 50 00 00 C4 00 00 00 00 00 00 00 00 00 00 00 00 00 00 00 00 00 00 C4 00 00 00 00 00 00 00 00 00 00 00 00 00 00 00 00 00 00 C4 00 00 00 00 00 00 00 00 00 00 00 00 00 00 00 00 00 00
9A 0D 00 00 50 00 00 C4 00 00 00 00 00 00 00 00 00 00 00 00 00 00 00 00 00 00 C4 00 00 00 00 00 00 00 00 00 00 00 00 00 00 00 00 00 00 C4 00 00 00 00 00 00 00 00 00 00 00 00 00 00 00 00 00 00
9B 0D 00 00 50 00 00 C4 00 00 00 00 00 00 00 00 00 00 00 00 00 00 00 00 00 00 C4 00 00 00 00 00 00 00 00 00 00 00 00 00 00 00 00 00 00 C4 00 00 00 01 00 00 00 00 00 00 00 00 00 00 00 00 00 00
9C 0D 00 00 50 00 00 C4 00 00 00 01 00 01 00 00 00 00 00 01 00 00 00 00 00 01 C4 00 00 00 01 00 01 00 00 00 01 00 01 00 00 00 00 00 01 C4 00 00 00 00 00 00 00 00 00 01 00 01 00 00 00 00 00 01
9D 0D 00 00 50 00 00 C4 00 00 00 00 00 00 00 00 00 01 00 01 00 00 00 00 00 01 C4 00 00 00 00 00 00 00 00 00 00 00 00 00 00 00 00 00 00 C4 00 00 00 00 00 00 00 00 00 00 00 00 00 00 00 00 00 00
9E 0D 00 00 50 00 00 C4 00 00 00 00 00 00 00 00 00 00 00 00 00 00 00 00 00 00 C4 00 00 00 00 00 00 00 00 00 00 00 00 00 00 00 00 00 00 C4 00 00 00 00 00 00 00 00 00 00 00 00 00 00 00 00 00 00
9F 0D 00 00 50 00 00 C4 00 00 00 00 00 00 00 00 00 00 00 00 00 00 00 00 00 00 C4 00 00 00 00 00 00 00 00 00 00 00 00 00 00 00 00 00 00 C4 00 00 00 00 00 00 00 00 00 00 00 00 00 00 00 00 00 00
A0 0D 00 00 50 00 00 C4 00 00 00 00 00 00 00 00 00 00 00 00 00 00 00 00 FF FF C4 00 00 00 00 00 00 00 00 00 00 00 00 00 00 00 00 FF FF C4 00 00 00 00 00 00 00 00 00 00 00 00 00 00 00 00 FF FF
A1 0D 00 00 50 00 00 C4 00 00 00 00 00 00 00 00 00 00 00 00 00 00 00 00 00 00 C4 00 00 00 00 00 00 00 00 00 00 00 00 00 00 00 00 00 00 C4 00 00 00 00 00 00 00 00 00 00 00 00 00 00 00 00 00 00
A2 0D 00 00 50 00 00 C4 00 00 00 00 00 00 00 00 00 01 00 01 00 00 00 00 00 00 C4 00 00 00 00 00 00 00 00 00 01 00 01 00 00 00 00 00 01 C4 00 00 00 01 00 01 00 00 00 01 00 01 00 00 00 00 00 01
A3 0D 00 00 50 00 00 C4 00 00 00 01 00 01 00 00 00 01 00 00 00 00 00 00 00 00 C4 00 00 00 00 00 00 00 00 00 01 00 00 00 00 00 00 00 00 C4 00 00 00 00 00 00 00 00 00 00 00 00 00 00 00 00 00 00
A4 0D 00 00 50 00 00 C4 00 00 00 00 00 00 00 00 00 00 00 00 00 00 00 00 00 00 C4 00 00 00 00 00 00 00 00 00 00 00 00 00 00 00 00 00 00 C4 00 00 00 00 00 00 00 00 00 00 00 00 00 00 00 00 00 00
A5 0D 00 00 50 00 00 C4 00 00 00 00 00 00 00 00 00 00 00 00 00 00 00 00 00 00 C4 00 00 00 00 00 00 00 00 00 00 00 00 00 00 00 00 00 00 C4 00 00 00 00 00 00 00 00 00 00 00 00 00 00 00 00 00 00
A6 0D 00 00 50 00 00 C4 00 00 00 00 00 00 00 00 00 00 00 00 00 00 00 00 00 00 C4 00 00 00 00 00 00 00 00 00 00 00 00 00 00 00 00 00 00 C4 00 00 00 00 00 00 00 00 00 00 00 00 00 00 00 00 FF FF
A7 0D 00 00 50 00 00 C4 00 00 00 00 00 00 00 00 00 00 00 00 00 00 00 00 00 00 C4 00 00 00 00 00 00 00 00 00 00 00 00 00 00 00 00 00 00 C4 00 00 00 00 00 00 00 00 00 00 00 00 00 00 00 00 00 00
A8 0D 00 00 50 00 00 C4 00 00 00 00 00 00 00 00 00 01 00 00 00 00 00 00 00 00 C4 00 00 00 00 00 00 00 00 00 01 00 00 00 00 00 00 00 00 C4 00 00 00 00 00 00 00 00 00 01 00 00 00 00 00 00 00 00
A9 0D 00 00 50 00 00 C4 00 00 00 00 00 00 00 00 00 01 00 00 00 00 00 00 00 01 C4 00 00 00 01 00 00 00 00 00 00 00 00 00 00 00 00 00 00 C4 00 00 00 01 00 01 00 00 00 00 00 01 00 00 00 00 00 00
AA 0D 00 00 50 00 00 C4 00 00 00 01 00 01 00 00 00 00 00 01 00 00 00 00 00 00 C4 00 00 00 00 00 00 00 00 00 01 00 01 00 00 00 00 00 01 C4 00 00 00 00 00 00 00 00 00 01 00 01 00 00 00 00 00 01
AB 0D 00 00 50 00 00 C4 00 00 00 00 00 00 00 00 00 01 00 00 00 00 00 00 00 01 C4 00 00 00 00 00 00 00 00 00 00 00 00 00 00 00 00 00 00 C4 00 00 00 00 00 00 00 00 00 00 00 00 00 00 00 00 00 00
AC 0D 00 00 50 00 00 C4 00 00 00 00 00 00 00 00 00 00 00 00 00 00 00 00 00 00 C4 00 00 00 00 00 00 00 00 00 00 00 00 00 00 00 00 00 00 C4 00 00 00 00 00 00 00 00 00 00 00 00 00 00 00 00 FF FF
AD 0D 00 00 50 00 00 C4 00 00 00 00 00 00 00 00 00 00 00 00 00 00 00 00 FF FF C4 00 00 00 00 00 00 00 00 00 00 00 00 00 00 00 00 00 00 C4 00 00 00 00 00 00 00 00 00 00 00 00 00 00 00 00 00 00
AE 0D 00 00 50 00 00 C4 00 00 00 00 00 00 00 00 00 00 00 00 00 00 00 00 00 00 C4 00 00 00 00 00 00 00 00 00 00 00 00 00 00 00 00 00 00 C4 00 00 00 00 00 00 00 00 00 00 00 00 00 00 00 00 00 00
AF 0D 00 00 50 00 00 C4 00 00 00 00 00 00 00 00 00 00 00 00 00 00 00 00 00 00 C4 00 00 00 00 00 00 00 00 00 00 00 00 00 00 00 00 00 00 C4 00 00 00 00 00 00 00 00 00 00 00 00 00 00 00 00 00 00
B0 0D 00 00 50 00 00 C4 00 00 00 00 00 00 00 00 00 01 00 00 00 00 00 00 00 00 C4 00 00 00 01 00 00 00 00 00 01 00 00 00 00 00 00 00 00 C4 00 00 00 01 00 01 00 00 00 01 00 00 00 00 00 00 00 00
B1 0D 00 00 50 00 00 C4 00 00 00 01 00 01 00 00 00 01 00 01 00 00 00 00 00 00 C4 00 00 00 00 00 01 00 00 00 01 00 01 00 00 00 00 00 00 C4 00 00 00 00 00 00 00 00 00 01 00 01 00 00 00 00 00 00
B2 0D 00 00 50 00 00 C4 00 00 00 00 00 00 00 00 00 00 00 00 00 00 00 00 00 00 C4 00 00 00 00 00 00 00 00 00 00 00 00 00 00 00 00 00 00 C4 00 00 00 00 00 00 00 00 00 00 00 00 00 00 00 00 00 00
B3 0D 00 00 50 00 00 C4 00 00 00 00 00 00 00 00 00 00 00 00 00 00 00 00 00 00 C4 00 00 00 00 00 00 00 00 00 00 00 00 00 00 00 00 00 00 C4 00 00 00 00 00 00 00 00 00 00 00 00 00 00 00 00 00 00
B4 0D 00 00 50 00 00 C4 00 00 00 00 00 00 00 00 00 00 00 00 00 00 00 00 00 00 C4 00 00 00 00 00 00 00 00 00 00 00 00 00 00 00 00 00 00 C4 00 00 00 00 00 00 00 00 00 00 00 00 00 00 00 00 FF FF
B5 0D 00 00 50 00 00 C4 00 00 00 00 00 00 00 00 00 00 00 00 00 00 00 00 FF FF C4 00 00 00 00 00 00 00 00 00 00 00 00 00 00 00 00 00 00 C4 00 00 00 00 00 00 00 00 00 00 00 00 00 00 00 00 00 00
B6 0D 00 00 50 00 00 C4 00 00 00 00 00 00 00 00 00 00 00 00 00 00 00 00 00 00 C4 00 00 00 00 00 00 00 00 00 01 00 00 00 00 00 00 00 00 C4 00 00 00 01 00 01 00 00 00 01 00 01 00 00 00 00 00 01
B7 0D 00 00 50 00 00 C4 00 00 00 01 00 01 00 00 00 01 00 01 00 00 00 00 00 01 C4 00 00 00 01 00 01 00 00 00 00 00 01 00 00 00 00 00 00 C4 00 00 00 00 00 00 00 00 00 00 00 00 00 00 00 00 00 00
B8 0D 00 00 50 00 00 C4 00 00 00 00 00 00 00 00 00 00 00 00 00 00 00 00 00 01 C4 00 00 00 00 00 00 00 00 00 01 00 00 00 00 00 00 00 01 C4 00 00 00 00 00 00 00 00 00 01 00 00 00 00 00 00 00 00
B9 0D 00 00 50 00 00 C4 00 00 00 00 00 00 00 00 00 00 00 00 00 00 00 00 00 00 C4 00 00 00 00 00 00 00 00 00 00 00 00 00 00 00 00 00 00 C4 00 00 00 00 00 00 00 00 00 00 00 00 00 00 00 00 00 00
BA 0D 00 00 50 00 00 C4 00 00 00 00 00 00 00 00 00 00 00 00 00 00 00 00 FF FF C4 00 00 00 00 00 00 00 00 00 00 00 00 00 00 00 00 FF FF C4 00 00 00 00 00 00 00 00 00 00 00 00 00 00 00 00 00 00
BB 0D 00 00 50 00 00 C4 00 00 00 00 00 00 00 00 00 00 00 00 00 00 00 00 00 00 C4 00 00 00 00 00 00 00 00 00 00 00 00 00 00 00 00 00 00 C4 00 00 00 00 00 00 00 00 00 00 00 00 00 00 00 00 00 00
BC 0D 00 00 50 00 00 C4 00 00 00 00 00 00 00 00 00 00 00 00 00 00 00 00 00 00 C4 00 00 00 00 00 00 00 00 00 00 00 00 00 00 00 00 00 00 C4 00 00 00 00 00 00 00 00 00 00 00 00 00 00 00 00 00 00
BD 0D 00 00 50 00 00 C4 00 00 00 00 00 00 00 00 00 01 00 00 00 00 00 00 00 00 C4 00 00 00 01 00 00 00 00 00 01 00 00 00 00 00 00 00 01 C4 00 00 00 01 00 01 00 00 00 01 00 00 00 00 00 00 00 01
BE 0D 00 00 50 00 00 C4 00 00 00 01 00 01 00 00 00 00 00 00 00 00 00 00 00 01 C4 00 00 00 00 00 01 00 00 00 00 00 00 00 00 00 00 00 00 C4 00 00 00 00 00 01 00 00 00 00 00 00 00 00 00 00 00 00
BF 0D 00 00 50 00 00 C4 00 00 00 00 00 00 00 00 00 01 00 00 00 00 00 00 00 00 C4 00 00 00 00 00 00 00 00 00 01 00 00 00 00 00 00 00 00 C4 00 00 00 00 00 00 00 00 00 01 00 00 00 00 00 00 00 00
C0 0D 00 00 50 00 00 C4 00 00 00 00 00 00 00 00 00 00 00 00 00 00 00 00 00 00 C4 00 00 00 00 00 00 00 00 00 00 00 00 00 00 00 00 00 00 C4 00 00 00 00 00 00 00 00 00 00 00 00 00 00 00 00 00 00
C1 0D 00 00 50 00 00 C4 00 00 00 00 00 00 00 00 00 00 00 00 00 00 00 00 00 00 C4 00 00 00 00 00 00 00 00 00 00 00 00 00 00 00 00 00 00 C4 00 00 00 00 00 00 00 00 00 00 00 00 00 00 00 00 00 00
C2 0D 00 00 50 00 00 C4 00 00 00 00 00 00 00 00 00 00 00 00 00 00 00 00 00 00 C4 00 00 00 00 00 00 00 00 00 00 00 00 00 00 00 00 00 00 C4 00 00 00 00 00 00 00 00 00 00 00 00 00 00 00 00 00 00
C3 0D 00 00 50 00 00 C4 00 00 00 00 00 00 00 00 00 00 00 00 00 00 00 00 00 00 C4 00 00 00 00 00 00 00 00 00 00 00 00 00 00 00 00 00 00 C4 00 00 00 00 00 00 00 00 00 00 00 00 00 00 00 00 00 00
C4 0D 00 00 50 00 00 C4 00 00 00 00 00 01 00 00 00 00 00 00 00 00 00 00 00 00 C4 00 00 00 00 00 01 00 00 00 00 00 00 00 00 00 00 00 00 C4 00 00 00 01 00 01 00 00 00 00 00 00 00 00 00 00 00 00
C5 0D 00 00 50 00 00 C4 00 00 00 01 00 01 00 00 00 00 00 00 00 00 00 00 00 00 C4 00 00 00 00 00 00 00 00 00 01 00 00 00 00 00 00 00 00 C4 00 00 00 00 00 00 00 00 00 01 00 00 00 00 00 00 00 00
C6 0D 00 00 50 00 00 C4 00 00 00 00 00 00 00 00 00 01 00 00 00 00 00 00 00 00 C4 00 00 00 00 00 00 00 00 00 01 00 00 00 00 00 00 00 00 C4 00 00 00 00 00 00 00 00 00 00 00 00 00 00 00 00 FF FF
C7 0D 00 00 50 00 00 C4 00 00 00 00 00 00 00 00 00 00 00 00 00 00 00 00 FF FF C4 00 00 00 00 00 00 00 00 00 00 00 00 00 00 00 00 FF FF C4 00 00 00 00 00 00 00 00 00 00 00 00 00 00 00 00 00 00
C8 0D 00 00 50 00 00 C4 00 00 00 00 00 00 00 00 00 00 00 00 00 00 00 00 00 00 C4 00 00 00 00 00 00 00 00 00 00 00 00 00 00 00 00 00 00 C4 00 00 00 00 00 00 00 00 00 00 00 00 00 00 00 00 00 00
C9 0D 00 00 50 00 00 C4 00 00 00 00 00 00 00 00 00 01 00 00 00 00 00 00 00 00 C4 00 00 00 00 00 00 00 00 00 01 00 00 00 00 00 00 00 00 C4 00 00 00 00 00 00 00 00 00 01 00 00 00 00 00 00 00 00
CA 0D 00 00 50 00 00 C4 00 00 00 00 00 00 00 00 00 00 00 00 00 00 00 00 00 00 C4 00 00 00 00 00 00 00 00 00 00 00 00 00 00 00 00 00 00 C4 00 00 00 00 00 00 00 00 00 00 00 00 00 00 00 00 00 01
CB 0D 00 00 50 00 00 C4 00 00 00 00 00 00 00 00 00 00 00 00 00 00 00 00 00 01 C4 00 00 00 01 00 01 00 00 00 00 00 01 00 00 00 00 00 01 C4 00 00 00 01 00 01 00 00 00 00 00 01 00 00 00 00 00 00
CC 0D 00 00 50 00 00 C4 00 00 00 00 00 01 00 00 00 00 00 01 00 00 00 00 00 00 C4 00 00 00 00 00 00 00 00 00 00 00 00 00 00 00 00 00 00 C4 00 00 00 00 00 00 00 00 00 00 00 00 00 00 00 00 00 00
CD 0D 00 00 50 00 00 C4 00 00 00 00 00 00 00 00 00 00 00 00 00 00 00 00 00 00 C4 00 00 00 00 00 00 00 00 00 00 00 00 00 00 00 00 00 00 C4 00 00 00 00 00 00 00 00 00 00 00 00 00 00 00 00 00 00
CE 0D 00 00 50 00 00 C4 00 00 00 00 00 00 00 00 00 00 00 00 00 00 00 00 00 00 C4 00 00 00 00 00 00 00 00 00 00 00 00 00 00 00 00 00 00 C4 00 00 00 00 00 00 00 00 00 01 00 00 00 00 00 00 00 00
CF 0D 00 00 50 00 00 C4 00 00 00 00 00 00 00 00 00 01 00 00 00 00 00 00 00 01 C4 00 00 00 00 00 00 00 01 00 01 00 01 00 01 00 00 00 01 C4 00 00 00 00 00 01 00 01 00 01 00 01 00 01 00 00 00 01
D0 0D 00 00 50 00 00 C4 00 00 00 00 00 01 00 01 00 02 00 01 00 01 00 00 00 01 C4 00 00 00 01 00 01 00 02 00 02 00 02 00 01 00 00 00 02 C4 00 00 00 01 00 02 00 02 00 02 00 02 00 02 00 00 00 02
D1 0D 00 00 50 00 00 C4 00 00 00 02 00 02 00 02 00 02 00 02 00 02 00 00 00 01 C4 00 00 00 02 00 03 00 02 00 03 00 02 00 02 00 00 00 01 C4 00 00 00 02 00 03 00 02 00 03 00 03 00 03 00 00 00 01
D2 0D 00 00 50 00 00 C4 00 00 00 03 00 03 00 03 00 04 00 03 00 03 00 00 00 02 C4 00 00 00 03 00 04 00 03 00 04 00 03 00 03 00 00 00 02 C4 00 00 00 03 00 04 00 03 00 04 00 04 00 03 00 00 00 02
D3 0D 00 00 50 00 00 C4 00 00 00 02 00 04 00 03 00 04 00 04 00 03 00 00 00 03 C4 00 00 00 02 00 04 00 03 00 04 00 04 00 03 00 00 00 03 C4 00 00 00 02 00 04 00 03 00 04 00 04 00 04 00 00 00 02
D4 0D 00 00 50 00 00 C4 00 00 00 03 00 04 00 03 00 04 00 04 00 04 00 00 00 02 C4 00 00 00 03 00 04 00 04 00 04 00 04 00 04 00 00 00 03 C4 00 00 00 03 00 04 00 04 00 05 00 04 00 04 00 00 00 03
D5 0D 00 00 50 00 00 C4 00 00 00 03 00 04 00 04 00 05 00 05 00 04 00 00 00 03 C4 00 00 00 03 00 05 00 04 00 05 00 05 00 05 00 00 00 03 C4 00 00 00 03 00 05 00 04 00 05 00 05 00 05 00 00 00 03
D6 0D 00 00 50 00 00 C4 00 00 00 03 00 05 00 04 00 05 00 05 00 05 00 00 00 03 C4 00 00 00 04 00 05 00 04 00 06 00 05 00 05 00 00 00 03 C4 00 00 00 04 00 06 00 05 00 06 00 06 00 05 00 00 00 03
D7 0D 00 00 50 00 00 C4 00 00 00 04 00 06 00 05 00 06 00 06 00 06 00 00 00 04 C4 00 00 00 04 00 07 00 05 00 06 00 06 00 06 00 00 00 04 C4 00 00 00 05 00 07 00 05 00 07 00 06 00 06 00 00 00 04
D8 0D 00 00 50 00 00 C4 00 00 00 05 00 07 00 05 00 07 00 07 00 06 00 00 00 04 C4 00 00 00 05 00 07 00 05 00 07 00 07 00 06 00 00 00 04 C4 00 00 00 06 00 08 00 06 00 07 00 07 00 07 00 00 00 04
D9 0D 00 00 50 00 00 C4 00 00 00 06 00 08 00 06 00 08 00 07 00 07 00 00 00 04 C4 00 00 00 06 00 08 00 06 00 08 00 07 00 07 00 00 00 04 C4 00 00 00 05 00 08 00 06 00 08 00 07 00 07 00 00 00 05
DA 0D 00 00 50 00 00 C4 00 00 00 05 00 07 00 06 00 08 00 07 00 07 00 00 00 05 C4 00 00 00 05 00 07 00 06 00 07 00 07 00 06 00 00 00 04 C4 00 00 00 05 00 07 00 06 00 07 00 07 00 06 00 00 00 04
DB 0D 00 00 50 00 00 C4 00 00 00 05 00 07 00 06 00 07 00 07 00 07 00 00 00 04 C4 00 00 00 04 00 07 00 06 00 07 00 07 00 07 00 00 00 04 C4 00 00 00 04 00 06 00 06 00 07 00 06 00 07 00 00 00 04
DC 0D 00 00 50 00 00 C4 00 00 00 04 00 07 00 06 00 07 00 07 00 07 00 00 00 04 C4 00 00 00 04 00 07 00 06 00 07 00 07 00 06 00 00 00 04 C4 00 00 00 04 00 07 00 06 00 07 00 07 00 06 00 00 00 04
DD 0D 00 00 50 00 00 C4 00 00 00 04 00 07 00 06 00 07 00 07 00 06 00 00 00 04 C4 00 00 00 04 00 07 00 06 00 06 00 07 00 06 00 00 00 04 C4 00 00 00 05 00 06 00 06 00 06 00 07 00 06 00 00 00 03
DE 0D 00 00 50 00 00 C4 00 00 00 05 00 07 00 06 00 07 00 07 00 06 00 00 00 03 C4 00 00 00 05 00 07 00 05 00 07 00 07 00 06 00 00 00 03 C4 00 00 00 05 00 07 00 05 00 07 00 07 00 06 00 00 00 04
DF 0D 00 00 50 00 00 C4 00 00 00 05 00 07 00 05 00 07 00 07 00 06 00 00 00 04 C4 00 00 00 05 00 07 00 05 00 06 00 06 00 06 00 00 00 04 C4 00 00 00 04 00 06 00 05 00 06 00 06 00 06 00 00 00 04
E0 0D 00 00 50 00 00 C4 00 00 00 04 00 06 00 04 00 06 00 06 00 05 00 00 00 04 C4 00 00 00 04 00 06 00 04 00 06 00 05 00 05 00 00 00 04 C4 00 00 00 04 00 06 00 04 00 06 00 05 00 05 00 00 00 04
E1 0D 00 00 50 00 00 C4 00 00 00 03 00 05 00 04 00 05 00 05 00 05 00 00 00 03 C4 00 00 00 03 00 05 00 04 00 05 00 05 00 05 00 00 00 03 C4 00 00 00 03 00 05 00 04 00 05 00 05 00 04 00 00 00 03
E2 0D 00 00 50 00 00 C4 00 00 00 03 00 04 00 04 00 05 00 04 00 04 00 00 00 03 C4 00 00 00 02 00 03 00 03 00 04 00 04 00 04 00 00 00 02 C4 00 00 00 02 00 03 00 03 00 04 00 04 00 03 00 00 00 02
E3 0D 00 00 50 00 00 C4 00 00 00 01 00 02 00 03 00 04 00 03 00 03 00 00 00 02 C4 00 00 00 01 00 02 00 02 00 03 00 03 00 02 00 00 00 02 C4 00 00 00 01 00 02 00 02 00 03 00 03 00 02 00 00 00 02
E4 0D 00 00 50 00 00 C4 00 00 00 02 00 02 00 02 00 03 00 03 00 02 00 00 00 01 C4 00 00 00 02 00 02 00 02 00 03 00 03 00 03 00 00 00 02 C4 00 00 00 02 00 03 00 02 00 03 00 03 00 03 00 00 00 02
E5 0D 00 00 50 00 00 C4 00 00 00 02 00 02 00 02 00 03 00 03 00 03 00 00 00 02 C4 00 00 00 02 00 02 00 02 00 02 00 02 00 02 00 00 00 02 C4 00 00 00 02 00 02 00 02 00 02 00 02 00 02 00 00 00 02
E6 0D 00 00 50 00 00 C4 00 00 00 02 00 02 00 01 00 02 00 02 00 01 00 00 00 01 C4 00 00 00 01 00 01 00 01 00 02 00 01 00 01 00 00 00 01 C4 00 00 00 01 00 01 00 01 00 01 00 01 00 01 00 00 00 00
E7 0D 00 00 50 00 00 C4 00 00 00 01 00 01 00 00 00 01 00 01 00 01 00 00 00 00 C4 00 00 00 00 00 00 00 00 00 01 00 01 00 01 00 00 00 01 C4 00 00 00 00 00 00 00 00 00 01 00 01 00 00 00 00 00 01
E8 0D 00 00 50 00 00 C4 00 00 00 00 00 00 00 00 00 00 00 00 00 00 00 00 00 00 C4 00 00 00 00 00 00 00 00 00 00 00 00 00 00 00 00 00 00 C4 00 00 00 00 00 00 00 00 00 00 00 00 00 00 00 00 00 00
E9 0D 00 00 50 00 00 C4 00 00 00 00 00 00 00 00 00 00 00 00 00 00 00 00 00 00 C4 00 00 00 00 00 00 00 00 00 00 00 00 00 00 00 00 FF FF C4 00 00 00 00 00 00 00 00 00 00 00 00 00 00 00 00 00 00
EA 0D 00 00 50 00 00 C4 00 00 00 00 00 00 00 00 00 00 00 00 00 00 00 00 00 00 C4 00 00 00 00 00 00 00 00 00 00 00 00 00 00 00 00 00 00 C4 00 00 00 00 00 00 00 00 00 00 00 00 00 00 00 00 00 00
EB 0D 00 00 50 00 00 C4 00 00 00 00 00 00 00 00 00 00 00 00 00 00 00 00 00 00 C4 00 00 00 00 00 00 00 00 00 01 00 00 00 00 00 00 00 00 C4 00 00 00 00 00 00 00 00 00 01 00 00 00 00 00 00 00 00
EC 0D 00 00 50 00 00 C4 00 00 00 00 00 00 00 00 00 00 00 00 00 00 00 00 00 00 C4 00 00 00 00 00 00 00 00 00 00 00 00 00 00 00 00 00 00 C4 00 00 00 01 00 00 00 00 00 00 00 00 00 00 00 00 00 00
ED 0D 00 00 50 00 00 C4 00 00 00 01 00 00 00 00 00 00 00 00 00 00 00 00 00 00 C4 00 00 00 00 00 00 00 00 00 00 00 00 00 00 00 00 00 00 C4 00 00 00 00 00 00 00 00 00 01 00 00 00 00 00 00 00 00
EE 0D 00 00 50 00 00 C4 00 00 00 00 00 00 00 00 00 01 00 00 00 00 00 00 00 00 C4 00 00 00 00 00 00 00 00 00 01 00 00 00 00 00 00 00 00 C4 00 00 00 00 00 00 00 00 00 00 00 00 00 00 00 00 00 00
EF 0D 00 00 50 00 00 C4 00 00 00 00 00 00 00 00 00 00 00 00 00 00 00 00 00 00 C4 00 00 00 00 00 00 00 00 00 00 00 00 00 00 00 00 00 00 C4 00 00 00 00 00 00 00 00 00 00 00 00 00 00 00 00 00 00
F0 0D 00 00 50 00 00 C4 00 00 00 00 00 00 00 00 00 00 00 00 00 00 00 00 00 00 C4 00 00 00 00 00 00 00 00 00 00 00 00 00 00 00 00 00 00 C4 00 00 00 00 00 00 00 00 00 00 00 00 00 00 00 00 00 00
F1 0D 00 00 50 00 00 C4 00 00 00 00 00 00 00 00 00 00 00 00 00 00 00 00 00 00 C4 00 00 00 00 00 00 00 00 00 00 00 00 00 00 00 00 00 00 C4 00 00 00 00 00 00 00 00 00 00 00 00 00 00 00 00 00 00
F2 0D 00 00 50 00 00 C4 00 00 00 00 00 00 00 00 00 00 00 00 00 00 00 00 00 00 C4 00 00 00 00 00 00 00 00 00 00 00 00 00 00 00 00 00 00 C4 00 00 00 00 00 00 00 00 00 00 00 00 00 00 00 00 00 00
F3 0D 00 00 50 00 00 C4 00 00 00 00 00 01 00 00 00 01 00 00 00 00 00 00 00 00 C4 00 00 00 00 00 01 00 00 00 01 00 00 00 00 00 00 00 00 C4 00 00 00 00 00 00 00 00 00 01 00 01 00 00 00 00 00 01
F4 0D 00 00 50 00 00 C4 00 00 00 00 00 00 00 00 00 01 00 01 00 00 00 00 00 01 C4 00 00 00 00 00 00 00 00 00 00 00 01 00 00 00 00 00 01 C4 00 00 00 00 00 00 00 00 00 00 00 00 00 00 00 00 00 01
F5 0D 00 00 50 00 00 C4 00 00 00 00 00 00 00 00 00 00 00 00 00 00 00 00 00 00 C4 00 00 00 00 00 00 00 00 00 00 00 00 00 00 00 00 00 00 C4 00 00 00 00 00 00 00 00 00 00 00 00 00 00 00 00 00 00
F6 0D 00 00 50 00 00 C4 00 00 00 00 00 00 00 00 00 00 00 00 00 00 00 00 00 00 C4 00 00 00 00 00 00 00 00 00 00 00 00 00 00 00 00 00 00 C4 00 00 00 00 00 00 00 00 00 00 00 00 00 00 00 00 00 00
F7 0D 00 00 50 00 00 C4 00 00 00 00 00 00 00 00 00 00 00 00 00 00 00 00 00 00 C4 00 00 00 00 00 00 00 00 00 00 00 00 00 00 00 00 00 00 C4 00 00 00 00 00 00 00 00 00 00 00 00 00 00 00 00 00 00
F8 0D 00 00 50 00 00 C4 00 00 00 00 00 00 00 00 00 00 00 00 00 00 00 00 00 00 C4 00 00 00 00 00 00 00 00 00 00 00 00 00 00 00 00 00 00 C4 00 00 00 00 00 00 00 00 00 01 00 00 00 00 00 00 00 00
F9 0D 00 00 50 00 00 C4 00 00 00 00 00 00 00 00 00 01 00 00 00 00 00 00 00 00 C4 00 00 00 00 00 00 00 00 00 01 00 00 00 00 00 00 00 00 C4 00 00 00 00 00 00 00 00 00 00 00 00 00 00 00 00 00 00
FA 0D 00 00 50 00 00 C4 00 00 00 00 00 00 00 00 00 00 00 01 00 00 00 00 00 01 C4 00 00 00 00 00 01 00 00 00 00 00 01 00 00 00 00 00 01 C4 00 00 00 00 00 01 00 00 00 01 00 01 00 00 00 00 00 01
FB 0D 00 00 50 00 00 C4 00 00 00 00 00 01 00 00 00 01 00 00 00 00 00 00 00 00 C4 00 00 00 00 00 00 00 00 00 00 00 00 00 00 00 00 00 00 C4 00 00 00 00 00 00 00 00 00 01 00 00 00 00 00 00 00 00
FC 0D 00 00 50 00 00 C4 00 00 00 00 00 00 00 00 00 01 00 00 00 00 00 00 00 00 C4 00 00 00 00 00 00 00 00 00 01 00 00 00 00 00 00 00 00 C4 00 00 00 00 00 00 00 00 00 01 00 00 00 00 00 00 00 00
FD 0D 00 00 50 00 00 C4 00 00 00 00 00 00 00 00 00 00 00 00 00 00 00 00 00 00 C4 00 00 00 00 00 00 00 00 00 00 00 00 00 00 00 00 00 00 C4 00 00 00 00 00 00 00 00 00 00 00 00 00 00 00 00 00 00
FE 0D 00 00 50 00 00 C4 00 00 00 00 00 00 00 00 00 00 00 00 00 00 00 00 00 00 C4 00 00 00 00 00 00 00 00 00 00 00 00 00 00 00 00 00 00 C4 00 00 00 00 00 00 00 00 00 00 00 00 00 00 00 00 00 00
FF 0D 00 00 50 00 00 C4 00 00 00 00 00 00 00 00 00 00 00 00 00 00 00 00 00 00 C4 00 00 00 00 00 00 00 00 00 00 00 00 00 00 00 00 00 00 C4 00 00 00 00 00 00 00 00 00 00 00 00 00 00 00 00 00 00
00 0E 00 00 50 00 00 C4 00 00 00 01 00 00 00 00 00 01 00 00 00 00 00 00 00 01 C4 00 00 00 01 00 00 00 00 00 01 00 01 00 00 00 00 00 01 C4 00 00 00 01 00 00 00 00 00 01 00 01 00 00 00 00 00 01
01 0E 00 00 50 00 00 C4 00 00 00 00 00 00 00 00 00 00 00 00 00 00 00 00 00 00 C4 00 00 00 00 00 00 00 00 00 00 00 00 00 00 00 00 00 00 C4 00 00 00 00 00 00 FF FF 00 00 00 00 00 00 00 00 00 00
02 0E 00 00 50 00 00 C4 00 00 FF FF 00 00 00 00 00 00 00 00 FF FF 00 00 00 00 C4 00 00 00 00 00 00 00 00 FF FF 00 00 FF FF 00 00 00 00 C4 00 00 00 00 00 00 00 00 FF FF 00 00 FF FE 00 00 00 00
03 0E 00 00 50 00 00 C4 00 00 FF FF FF FF 00 00 FF FF 00 00 FF FE 00 00 FF FF C4 00 00 FF FE FF FE FF FF FF FE 00 00 FF FD 00 00 FF FF C4 00 00 FF FD FF FD FF FE FF FD FF FF FF FC 00 00 FF FF
04 0E 00 00 50 00 00 C4 00 00 FF FB FF FB FF FD FF FC FF FD FF FB 00 00 FF FE C4 00 00 FF FA FF FA FF FC FF FB FF FC FF FA 00 00 FF FE C4 00 00 FF F9 FF F9 FF FC FF FA FF FB FF F9 00 00 FF FE
05 0E 00 00 50 00 00 C4 00 00 FF F9 FF F9 FF FC FF F9 FF FB FF F9 00 00 FF FF C4 00 00 FF F9 FF F9 FF FD FF FA FF FA FF F9 00 00 FF FF C4 00 00 FF F9 FF F9 FF FD FF FA FF FA FF F8 00 00 FF FF
06 0E 00 00 50 00 00 C4 00 00 FF F9 FF F9 FF FD FF FB FF FB FF F8 00 00 FF FF C4 00 00 FF F9 FF F9 FF FD FF FC FF FB FF F8 00 00 00 00 C4 00 00 FF F9 FF F9 FF FE FF FD FF FC FF F8 00 00 00 01
07 0E 00 00 50 00 00 C4 00 00 FF FA FF FA 00 00 00 00 FF FE FF F8 00 00 00 03 C4 00 00 FF FC FF FB 00 02 00 04 00 00 FF FA 00 00 00 04 C4 00 00 FF FE FF FE 00 05 00 08 00 02 FF FC 00 00 00 06
08 0E 00 00 50 00 00 C4 00 00 00 00 00 00 00 07 00 0C 00 05 FF FE 00 00 00 07 C4 00 00 00 00 00 01 00 09 00 10 00 09 00 00 00 00 00 07 C4 00 00 00 00 00 02 00 0A 00 13 00 0C 00 00 00 00 00 08
09 0E 00 00 50 00 00 C4 00 00 00 00 00 02 00 0A 00 15 00 0F 00 02 00 00 00 08 C4 00 00 00 01 00 03 00 0B 00 18 00 12 00 04 00 00 00 09 C4 00 00 00 02 00 05 00 0D 00 1B 00 15 00 06 00 00 00 09
0A 0E 00 00 50 00 00 C4 00 00 00 05 00 08 00 0F 00 1E 00 19 00 0A 00 00 00 0A C4 00 00 00 09 00 0D 00 12 00 23 00 1E 00 0F 00 00 00 0C C4 00 00 00 0D 00 12 00 16 00 28 00 24 00 15 00 00 00 0D
0B 0E 00 00 50 00 00 C4 00 00 00 11 00 17 00 18 00 2E 00 2B 00 1B 00 00 00 0E C4 00 00 00 14 00 1B 00 1A 00 32 00 31 00 20 00 00 00 0E C4 00 00 00 16 00 1E 00 1B 00 36 00 36 00 24 00 00 00 0F
0C 0E 00 00 50 00 00 C4 00 00 00 17 00 1F 00 1C 00 38 00 39 00 27 00 00 00 0F C4 00 00 00 18 00 20 00 1C 00 3A 00 3C 00 29 00 00 00 0F C4 00 00 00 19 00 23 00 1D 00 3B 00 3E 00 2C 00 00 00 0F
0D 0E 00 00 50 00 00 C4 00 00 00 1C 00 26 00 1D 00 3D 00 42 00 30 00 00 00 0F C4 00 00 00 1F 00 2A 00 1D 00 3F 00 45 00 34 00 00 00 0E C4 00 00 00 23 00 2F 00 1B 00 3F 00 49 00 39 00 00 00 0D
0E 0E 00 00 50 00 00 C4 00 00 00 25 00 32 00 18 00 3E 00 4A 00 3C 00 00 00 0A C4 00 00 00 26 00 34 00 14 00 3A 00 49 00 3E 00 00 00 07 C4 00 00 00 27 00 34 00 0F 00 35 00 46 00 3E 00 00 00 04
0F 0E 00 00 50 00 00 C4 00 00 00 26 00 33 00 0B 00 2F 00 43 00 3C 00 00 00 01 C4 00 00 00 25 00 32 00 08 00 2A 00 3F 00 3B 00 00 FF FF C4 00 00 00 24 00 32 00 05 00 26 00 3C 00 39 00 00 FF FD
10 0E 00 00 50 00 00 C4 00 00 00 23 00 31 00 01 00 21 00 39 00 37 00 00 FF FB C4 00 00 00 22 00 2F FF FE 00 1C 00 36 00 35 00 00 FF F8 C4 00 00 00 20 00 2C FF F7 00 15 00 32 00 32 00 00 FF F4
11 0E 00 00 50 00 00 C4 00 00 00 1E 00 28 FF EF 00 0D 00 2B 00 2E 00 00 FF F0 C4 00 00 00 1A 00 24 FF E7 00 03 00 23 00 29 00 00 FF EB C4 00 00 00 16 00 1F FF DE FF F9 00 1C 00 24 00 00 FF E6
12 0E 00 00 50 00 00 C4 00 00 00 14 00 1B FF D7 FF F1 00 15 00 1F 00 00 FF E2 C4 00 00 00 12 00 19 FF D2 FF EA 00 11 00 1B 00 00 FF E0 C4 00 00 00 12 00 18 FF CF FF E6 00 0E 00 17 00 00 FF DE
13 0E 00 00 50 00 00 C4 00 00 00 11 00 17 FF CC FF E2 00 0C 00 14 00 00 FF DD C4 00 00 00 10 00 15 FF CA FF DF 00 09 00 11 00 00 FF DB C4 00 00 00 0D 00 12 FF C7 FF DB 00 05 00 0E 00 00 FF DA
14 0E 00 00 50 00 00 C4 00 00 00 0A 00 0E FF C5 FF D8 00 00 00 0A 00 00 FF D9 C4 00 00 00 07 00 0A FF C5 FF D7 FF FB 00 06 00 00 FF DA C4 00 00 00 04 00 05 FF C6 FF D7 FF F7 00 02 00 00 FF DB
15 0E 00 00 50 00 00 C4 00 00 00 02 00 02 FF C8 FF D8 FF F4 00 00 00 00 FF DD C4 00 00 00 00 00 00 FF CB FF DB FF F2 FF FE 00 00 FF E0 C4 00 00 00 00 00 00 FF CF FF DD FF F2 FF FC 00 00 FF E3
16 0E 00 00 50 00 00 C4 00 00 00 00 00 00 FF D2 FF DF FF F2 FF FB 00 00 FF E5 C4 00 00 00 00 FF FF FF D5 FF E1 FF F2 FF FB 00 00 FF E6 C4 00 00 FF FF FF FF FF D7 FF E2 FF F2 FF FB 00 00 FF E8
17 0E 00 00 50 00 00 C4 00 00 FF FE FF FE FF DA FF E4 FF F2 FF FA 00 00 FF EA C4 00 00 FF FE FF FC FF DE FF E7 FF F2 FF FA 00 00 FF EC C4 00 00 FF FD FF FC FF E3 FF EB FF F3 FF F9 00 00 FF EF
18 0E 00 00 50 00 00 C4 00 00 FF FC FF FB FF E8 FF F0 FF F5 FF F9 00 00 FF F2 C4 00 00 FF FC FF FB FF ED FF F3 FF F7 FF F9 00 00 FF F6 C4 00 00 FF FB FF FB FF F1 FF F6 FF F8 FF FA 00 00 FF F8
19 0E 00 00 50 00 00 C4 00 00 FF FC FF FC FF F3 FF F8 FF FA FF FA 00 00 FF F9 C4 00 00 FF FC FF FC FF F5 FF F9 FF FB FF FA 00 00 FF FA C4 00 00 FF FC FF FC FF F6 FF F9 FF FC FF FB 00 00 FF FB
1A 0E 00 00 50 00 00 C4 00 00 FF FD FF FD FF F8 FF FA FF FD FF FB 00 00 FF FC C4 00 00 FF FE FF FD FF F9 FF FC FF FE FF FC 00 00 FF FD C4 00 00 FF FF FF FE FF FB FF FD FF FE FF FC 00 00 FF FE
1B 0E 00 00 50 00 00 C4 00 00 00 00 FF FF FF FD FF FE FF FF FF FD 00 00 FF FE C4 00 00 00 00 00 00 FF FF FF FF 00 00 FF FE 00 00 FF FF C4 00 00 00 00 00 00 00 00 FF FF 00 00 FF FE 00 00 00 00
1C 0E 00 00 50 00 00 C4 00 00 00 00 00 00 00 00 00 00 00 00 FF FF 00 00 00 00 C4 00 00 00 00 00 00 00 00 00 00 00 01 00 00 00 00 00 01 C4 00 00 00 00 00 00 00 00 00 00 00 01 00 00 00 00 00 01
1D 0E 00 00 50 00 00 C4 00 00 00 00 00 00 00 01 00 01 00 02 00 00 00 00 00 01 C4 00 00 00 00 00 00 00 01 00 01 00 02 00 00 00 00 00 01 C4 00 00 00 00 00 00 00 01 00 01 00 01 00 00 00 00 00 01
1E 0E 00 00 50 00 00 C4 00 00 00 00 00 00 00 01 00 01 00 01 00 00 00 00 00 00 C4 00 00 00 00 00 00 00 00 00 00 00 01 FF FF 00 00 00 00 C4 00 00 00 00 00 00 00 00 00 00 00 01 FF FF 00 00 00 00
1F 0E 00 00 50 00 00 C4 00 00 00 00 00 00 00 00 00 00 00 01 FF FF 00 00 00 00 C4 00 00 00 00 00 00 00 00 00 00 00 01 FF FF 00 00 00 00 C4 00 00 00 00 00 00 00 00 00 01 00 01 FF FF 00 00 00 00
20 0E 00 00 50 00 00 C4 00 00 00 00 00 00 00 00 00 01 00 01 00 00 00 00 00 00 C4 00 00 00 00 00 00 00 00 00 01 00 01 00 00 00 00 00 00 C4 00 00 00 00 00 00 00 00 00 01 00 01 00 00 00 00 00 00
21 0E 00 00 50 00 00 C4 00 00 00 00 00 00 00 00 00 01 00 01 00 00 00 00 00 00 C4 00 00 00 00 00 00 00 00 00 01 00 01 00 00 00 00 00 00 C4 00 00 00 00 00 00 00 00 00 01 00 02 00 00 00 00 00 01
22 0E 00 00 50 00 00 C4 00 00 00 00 00 01 00 00 00 01 00 02 00 00 00 00 00 01 C4 00 00 00 01 00 01 00 00 00 01 00 02 00 00 00 00 00 00 C4 00 00 00 01 00 01 00 00 00 01 00 01 00 00 00 00 00 00
23 0E 00 00 50 00 00 C4 00 00 00 01 00 00 00 00 00 01 00 01 00 00 00 00 00 00 C4 00 00 00 00 00 00 00 00 00 01 00 01 00 00 00 00 00 00 C4 00 00 00 00 00 00 00 00 00 01 00 01 00 00 00 00 00 00
24 0E 00 00 50 00 00 C4 00 00 00 00 00 00 00 00 00 01 00 01 00 00 00 00 00 00 C4 00 00 00 00 00 00 00 00 00 01 00 01 00 00 00 00 00 00 C4 00 00 00 00 00 00 00 00 00 00 00 01 00 00 00 00 00 00
25 0E 00 00 50 00 00 C4 00 00 00 00 00 00 00 00 00 00 00 01 00 00 00 00 00 00 C4 00 00 00 00 00 00 00 00 00 00 00 01 00 00 00 00 00 00 C4 00 00 00 00 00 00 00 00 00 00 00 01 00 00 00 00 00 00
26 0E 00 00 50 00 00 C4 00 00 00 00 00 00 00 00 00 00 00 01 FF FF 00 00 00 00 C4 00 00 00 00 00 00 00 00 00 00 00 01 FF FF 00 00 00 00 C4 00 00 00 00 00 00 00 00 00 00 00 01 FF FF 00 00 00 00
27 0E 00 00 50 00 00 C4 00 00 00 00 00 00 00 00 00 00 00 01 FF FF 00 00 00 00 C4 00 00 00 00 00 00 00 00 00 00 00 01 FF FF 00 00 00 00 C4 00 00 00 00 00 00 00 00 00 00 00 01 FF FF 00 00 00 00
28 0E 00 00 50 00 00 C4 00 00 00 00 00 00 00 00 00 00 00 01 00 00 00 00 00 00 C4 00 00 00 00 00 00 00 00 00 00 00 01 00 00 00 00 00 00 C4 00 00 00 01 00 00 00 00 00 01 00 01 00 00 00 00 00 00
29 0E 00 00 50 00 00 C4 00 00 00 01 00 00 00 00 00 01 00 02 00 00 00 00 00 00 C4 00 00 00 01 00 01 00 00 00 01 00 02 00 00 00 00 00 00 C4 00 00 00 00 00 01 00 00 00 01 00 02 00 00 00 00 00 01
2A 0E 00 00 50 00 00 C4 00 00 00 00 00 00 00 00 00 00 00 02 00 00 00 00 00 01 C4 00 00 00 00 00 00 00 00 00 00 00 01 00 00 00 00 00 01 C4 00 00 00 00 00 00 00 00 00 00 00 01 00 00 00 00 00 01
2B 0E 00 00 50 00 00 C4 00 00 00 00 00 00 00 00 00 01 00 01 00 00 00 00 00 01 C4 00 00 00 00 00 00 00 00 00 01 00 01 FF FF 00 00 00 01 C4 00 00 00 00 00 00 00 00 00 01 00 00 FF FF 00 00 00 00
2C 0E 00 00 50 00 00 C4 00 00 00 00 00 00 00 00 00 00 00 00 FF FF 00 00 00 00 C4 00 00 00 00 00 00 00 00 00 00 00 00 00 00 00 00 00 00 C4 00 00 00 00 00 00 00 00 00 00 00 00 00 00 00 00 00 00
2D 0E 00 00 50 00 00 C4 00 00 00 00 00 00 00 00 00 00 00 00 00 00 00 00 00 00 C4 00 00 00 00 00 00 00 00 00 00 00 00 00 00 00 00 00 00 C4 00 00 00 00 00 00 00 00 00 00 00 00 FF FF 00 00 00 00
2E 0E 00 00 50 00 00 C4 00 00 00 00 00 00 00 00 00 00 00 01 FF FF 00 00 00 00 C4 00 00 00 00 00 00 00 00 00 00 00 01 FF FF 00 00 00 00 C4 00 00 00 00 00 00 00 00 00 00 00 01 00 00 00 00 00 00
2F 0E 00 00 50 00 00 C4 00 00 00 00 00 00 00 00 00 01 00 01 00 00 00 00 00 01 C4 00 00 00 01 00 00 00 00 00 01 00 02 00 00 00 00 00 01 C4 00 00 00 01 00 01 00 00 00 01 00 02 00 00 00 00 00 01
30 0E 00 00 50 00 00 C4 00 00 00 01 00 01 00 00 00 00 00 02 00 00 00 00 00 00 C4 00 00 00 01 00 01 00 00 00 00 00 02 00 00 00 00 00 00 C4 00 00 00 00 00 00 00 00 00 00 00 01 00 00 00 00 00 00
31 0E 00 00 50 00 00 C4 00 00 00 00 00 00 00 00 00 01 00 01 00 00 00 00 00 00 C4 00 00 00 00 00 00 00 00 00 01 00 01 00 00 00 00 00 00 C4 00 00 00 00 00 00 00 00 00 01 00 01 FF FF 00 00 00 00
32 0E 00 00 50 00 00 C4 00 00 00 00 00 00 00 00 00 00 00 00 FF FF 00 00 00 00 C4 00 00 00 00 00 00 00 00 00 00 00 00 00 00 00 00 FF FF C4 00 00 00 00 00 00 00 00 00 00 00 00 00 00 00 00 FF FF
33 0E 00 00 50 00 00 C4 00 00 00 00 00 00 00 00 00 00 00 01 00 00 00 00 FF FF E4 00 00 00 00 00 00 00 00 00 00 00 01 00 00 00 00 00 00 C4 00 00 00 00 00 00 00 00 00 00 00 00 FF FF 00 00 00 00
34 0E 00 00 50 00 00 C4 00 00 00 00 00 00 00 00 00 00 00 00 FF FF 00 00 00 00 C4 00 00 00 00 00 00 00 00 00 00 00 00 FF FF 00 00 00 00 C4 00 00 00 00 00 00 00 00 00 00 00 01 FF FF 00 00 00 00
35 0E 00 00 50 00 00 C4 00 00 00 00 00 00 00 00 00 00 00 01 FF FF 00 00 00 00 C4 00 00 00 00 00 00 00 00 00 00 00 01 00 00 00 00 00 00 C4 00 00 00 00 00 00 00 00 00 00 00 02 00 00 00 00 00 00
36 0E 00 00 50 00 00 C4 00 00 00 01 00 00 00 00 00 01 00 02 00 00 00 00 00 01 C4 00 00 00 01 00 00 00 00 00 01 00 01 00 00 00 00 00 01 C4 00 00 00 01 00 01 00 00 00 01 00 01 00 00 00 00 00 00
37 0E 00 00 50 00 00 C4 00 00 00 00 00 01 00 00 00 00 00 01 00 00 00 00 00 00 C4 00 00 00 00 00 00 00 00 00 00 00 01 FF FF 00 00 00 00 C4 00 00 00 00 00 00 00 00 00 00 00 01 FF FF 00 00 00 00
38 0E 00 00 50 00 00 C4 00 00 00 00 00 00 00 00 00 01 00 01 FF FF 00 00 00 00 C4 00 00 00 00 00 00 00 00 00 01 00 01 00 00 00 00 00 00 C4 00 00 00 00 00 00 00 00 00 01 00 01 00 00 00 00 00 00
39 0E 00 00 50 00 00 C4 00 00 00 00 00 00 00 00 00 00 00 01 FF FF 00 00 00 00 C4 00 00 00 00 00 00 00 00 00 00 00 00 FF FF 00 00 00 00 C4 00 00 00 00 00 00 00 00 00 00 00 00 FF FF 00 00 FF FF
3A 0E 00 00 50 00 00 C4 00 00 00 00 00 00 00 00 00 00 00 00 FF FF 00 00 00 00 C4 00 00 00 00 00 00 00 00 00 00 00 01 00 00 00 00 00 00 C4 00 00 00 00 00 00 00 00 00 00 00 01 00 00 00 00 00 00
3B 0E 00 00 50 00 00 C4 00 00 00 00 00 00 00 00 00 00 00 01 00 00 00 00 00 00 C4 00 00 00 00 00 00 00 00 00 00 00 01 FF FF 00 00 00 00 C4 00 00 00 00 00 00 00 00 00 00 00 01 FF FF 00 00 00 00
3C 0E 00 00 50 00 00 C4 00 00 00 00 00 00 00 00 00 00 00 01 00 00 00 00 00 00 C4 00 00 00 00 00 00 00 00 00 00 00 01 00 00 00 00 00 00 C4 00 00 00 01 00 00 00 00 00 01 00 02 00 00 00 00 00 00
